epoch,train_loss,train_accuracy,train_1st degree av block_rocauc,train_1st degree av block_prauc,train_abnormal QRS_rocauc,train_abnormal QRS_prauc,train_anterior myocardial infarction_rocauc,train_anterior myocardial infarction_prauc,train_atrial fibrillation_rocauc,train_atrial fibrillation_prauc,train_complete right bundle branch block_rocauc,train_complete right bundle branch block_prauc,train_incomplete right bundle branch block_rocauc,train_incomplete right bundle branch block_prauc,train_left anterior fascicular block_rocauc,train_left anterior fascicular block_prauc,train_left atrial enlargement_rocauc,train_left atrial enlargement_prauc,train_left axis deviation_rocauc,train_left axis deviation_prauc,train_left bundle branch block_rocauc,train_left bundle branch block_prauc,train_left ventricular hypertrophy_rocauc,train_left ventricular hypertrophy_prauc,train_myocardial infarction_rocauc,train_myocardial infarction_prauc,train_myocardial ischemia_rocauc,train_myocardial ischemia_prauc,train_nonspecific intraventricular conduction disorder_rocauc,train_nonspecific intraventricular conduction disorder_prauc,train_nonspecific st t abnormality_rocauc,train_nonspecific st t abnormality_prauc,train_premature atrial contraction_rocauc,train_premature atrial contraction_prauc,train_prolonged pr interval_rocauc,train_prolonged pr interval_prauc,train_qwave abnormal_rocauc,train_qwave abnormal_prauc,train_right axis deviation_rocauc,train_right axis deviation_prauc,train_s t changes_rocauc,train_s t changes_prauc,train_sinus arrhythmia_rocauc,train_sinus arrhythmia_prauc,train_sinus bradycardia_rocauc,train_sinus bradycardia_prauc,train_sinus rhythm_rocauc,train_sinus rhythm_prauc,train_sinus tachycardia_rocauc,train_sinus tachycardia_prauc,train_st depression_rocauc,train_st depression_prauc,train_t wave abnormal_rocauc,train_t wave abnormal_prauc,train_ventricular ectopics_rocauc,train_ventricular ectopics_prauc,train_mean_rocaucs,train_mean_praucs,valid_accuracy,valid_abnormal QRS_rocauc,valid_abnormal QRS_prauc,valid_atrial fibrillation_rocauc,valid_atrial fibrillation_prauc,valid_incomplete right bundle branch block_rocauc,valid_incomplete right bundle branch block_prauc,valid_left anterior fascicular block_rocauc,valid_left anterior fascicular block_prauc,valid_left axis deviation_rocauc,valid_left axis deviation_prauc,valid_left ventricular hypertrophy_rocauc,valid_left ventricular hypertrophy_prauc,valid_myocardial infarction_rocauc,valid_myocardial infarction_prauc,valid_myocardial ischemia_rocauc,valid_myocardial ischemia_prauc,valid_sinus rhythm_rocauc,valid_sinus rhythm_prauc,valid_t wave abnormal_rocauc,valid_t wave abnormal_prauc,valid_ventricular ectopics_rocauc,valid_ventricular ectopics_prauc,valid_mean_rocaucs,valid_mean_praucs
0,5.624210869280512,0.053583695901076256,0.6253852765887346,0.05585684876957768,0.5938427756910344,0.19856542901050422,0.5919295303732743,0.020994678859540303,0.6545448588176573,0.13248792920609956,0.5760003795262054,0.09103681909132928,0.5062255770387103,0.0499808971001829,0.8173767129164102,0.22144051506060952,0.6762804640881881,0.040072847988640276,0.7271779099598906,0.432246741109871,0.8268077474733858,0.11802702611852678,0.6517183365914604,0.18884230558579762,0.6467646964588395,0.34723062627986423,0.6340780074118754,0.16027703324621576,0.5869337309418782,0.04657912739150172,0.5282131318184586,0.01939950101145318,0.5758981085259686,0.02463530514149144,0.5736656902922305,0.020439132218563402,0.5423416689801468,0.030368330446172948,0.5563719890455728,0.020200452835861304,0.5604857028152932,0.047948539466213885,0.43750691324030505,0.03125353901571996,0.35981320025680646,0.020006752485405652,0.4411610862847779,0.7852469183233847,0.7039738624982561,0.10028997199795929,0.5742777770190898,0.06244689973653753,0.519852979018011,0.11011604161031271,0.6503244218987424,0.0940768525687977,0.5977389827989334,0.12852100228430127,0.05357142857142857,0.5641397639177222,0.18468287021141866,0.638854035057778,0.12341965674544556,0.5075663394580805,0.05244578079828054,0.8235780445229118,0.2300893903810318,0.6999651778003109,0.3800414888223497,0.6516118787822046,0.18125209259425087,0.6309661177256036,0.34440646266371233,0.6421727732624916,0.16508805419142938,0.44626159457063885,0.7807510965765485,0.5176153573375081,0.11350219740764156,0.6317462237273558,0.0916688331947129,0.6140433914693278,0.2406679930533474
1,5.432227294087073,0.5365239294710328,0.5585638682300925,0.04017438778424051,0.5462791442695784,0.18138869391707724,0.6411215062719856,0.027260509955727583,0.6207585426964142,0.09806144284432057,0.6510243268419393,0.10608851949073561,0.5572887999424636,0.05486995888063968,0.8668527284348866,0.29292679781029796,0.746141610774334,0.046084517535139334,0.6947505585134792,0.3462143278045793,0.9116486144230834,0.13405080824597243,0.7749048469077764,0.21845083745014396,0.7161277267782714,0.40527043002774044,0.8151315737651275,0.25286948528584996,0.625295829061363,0.05205874214904386,0.7238641006461133,0.034199863504815464,0.5291287402766873,0.020389907846509743,0.6148082956608661,0.022717314980378153,0.6279711609873696,0.03637960113737635,0.6299107683229437,0.025933163881747153,0.7004220593576912,0.06654126852518816,0.537329648513212,0.037975166793422895,0.6371747160215893,0.03870736748300588,0.7786587185537122,0.9424809880594662,0.38646721234697773,0.042966409223001725,0.727069193286522,0.09151651258611698,0.6435587111481265,0.16111258233773768,0.7594225731373889,0.10407060801931049,0.6674694657470368,0.1437318597614661,0.5902014652014652,0.5224994233334336,0.1755482191950669,0.6570063746955671,0.1034906985499325,0.5510344129205736,0.05600193001263003,0.8631989061753306,0.2813560511516215,0.6667027672143622,0.3116399524537379,0.7802477955758312,0.22495473968577473,0.7094446144430844,0.40078829474383565,0.818680425868937,0.2533156135046709,0.7687610635911264,0.9401523720725073,0.6814136572304826,0.17853154579221092,0.7579619085424601,0.10898254812034357,0.7069955772355626,0.2758874513893029
2,5.089434139801886,0.17281123578352797,0.32638282742531616,0.024912732401365368,0.31017849804711817,0.10449298773807267,0.4893985949698222,0.018106053899622988,0.24068986790343083,0.043328476721159054,0.5565238431001673,0.07450749268659528,0.47828658998095336,0.04728510209426069,0.9362103019863846,0.5124337443991447,0.39524338067184644,0.014644896171644346,0.24286868368828096,0.15525927887767782,0.8738212264328162,0.10032134229752004,0.3155385890999878,0.07487606210491418,0.4619443985619974,0.2379506688721475,0.40016533964940093,0.07611115516189466,0.37758636969692505,0.027243178417077723,0.30179616191908154,0.011293418111753484,0.41196968925592375,0.015155630921746205,0.32432772161564116,0.01070385523924922,0.39577914451064555,0.019628604027659556,0.27569940386128433,0.009947962567051659,0.48614633824186254,0.031881332702619884,0.555740384922496,0.04051200950387657,0.5355711289879568,0.02800195942130919,0.793747518887507,0.9512877858433335,0.3469548169628148,0.02589459362460384,0.2995374351096337,0.03095308157402416,0.5300508948404337,0.1099033466416687,0.6273747722050005,0.06568921037624863,0.45516792305684184,0.10601207268141637,0.21153846153846154,0.31885990512581364,0.10598298059970672,0.25741544886268153,0.04002491462983432,0.4895260574669057,0.048487838274604254,0.9346140252482344,0.4926066472379213,0.27084062630870875,0.15047581672931218,0.2923670749248879,0.07340739230879814,0.4747163959051964,0.24919918639390967,0.4001169006140205,0.07594834352985512,0.7849644088895624,0.9482173517747735,0.49496402262031286,0.10179528505513726,0.6299971261872568,0.06877724102109536,0.48621654474123466,0.21408390886863166
3,5.000350832129315,0.3288298603160064,0.4398353241504651,0.0342333222185575,0.3732016200182009,0.1288880496392959,0.6291685758076582,0.0256776011409281,0.49480698612319224,0.07572902423202658,0.7406424782650173,0.1621794413889316,0.5865287752449084,0.058837071725686724,0.9453592740224683,0.6487572033156331,0.5551531623834325,0.025157738828496312,0.3802275327868425,0.21233934558810091,0.8766004468676172,0.10143450724057189,0.5377960830208867,0.1619274594289634,0.6724372631415882,0.3714989375502993,0.8266273862324653,0.3774166577704813,0.42915647365062104,0.03137081426924556,0.42375063218630726,0.014700259945705065,0.4678668465518581,0.017167122646629156,0.37629774249941367,0.01266821273947225,0.5647729348927376,0.033242530783317695,0.2856395252072868,0.010447081078083712,0.7074017236914596,0.08349167990086025,0.5463687207185398,0.04140860076355351,0.5697552250173985,0.03092873232502528,0.8146196096018011,0.9576718112501437,0.3823357178462483,0.037350422063835174,0.5271090802322822,0.05871692242804458,0.7167154295812295,0.2091901896655941,0.788398694499993,0.13083503256616674,0.5799471579348858,0.15012095453680185,0.47458791208791207,0.3633544944890734,0.12365942500741482,0.5452084423573749,0.08799793743383386,0.594566585079978,0.061914545929297425,0.9376331605426644,0.6248348119323061,0.38458327644684703,0.19735518054301082,0.5234209428807313,0.14388602984861146,0.678235506843218,0.37930287082258196,0.8294750285675876,0.38023195088382683,0.8047183039840403,0.9548869569628871,0.7327548997217121,0.23995033112518765,0.7742475365842565,0.12567520042501013,0.6516543797724985,0.30179047644672435
4,4.825319267449402,0.43073047858942065,0.4210739319202982,0.030257623430281065,0.33589346814603677,0.10971538885269122,0.6479369566267564,0.028673082332193643,0.6304817971472404,0.12229428654908797,0.8305741327201084,0.32006627416469197,0.7400056362091211,0.15386805099430714,0.9626560842794247,0.6831645210057721,0.6226018473720327,0.02872243905882453,0.7404431155492506,0.505486352448081,0.8846661642536846,0.10961321259630721,0.5558253237625925,0.17078074548782107,0.7599484499043001,0.5591249052678389,0.8615379867327972,0.44440409223319566,0.39056919721334715,0.028883086823649,0.4599226388739658,0.016400031895638774,0.4297121390349972,0.014900985503187402,0.3855377065616409,0.012448419083740206,0.5408065859440067,0.028952955374086257,0.48033574411426494,0.014222277344358585,0.7233388310250559,0.0940245213875104,0.5744648017307896,0.049733791602303734,0.6091390622182754,0.04760266048882938,0.852879528699352,0.9645779631288727,0.3369068002832332,0.025296301707663695,0.6104039352027806,0.07534581821559566,0.7557275032006394,0.2752166571641735,0.8459133272626295,0.19183261622114195,0.6292334331847639,0.1890966318652535,0.4993131868131868,0.3343089528738053,0.10866216803867605,0.6537306466907049,0.13067380842461873,0.739212027716492,0.1444125235143816,0.9630427640312218,0.6604167430840499,0.7349548922122529,0.4771879608294998,0.5301512456273246,0.15219588633366862,0.7592557304996105,0.552007025276192,0.859691791531135,0.4557557774722992,0.8423819649848611,0.962081588140885,0.7315993339919246,0.23277172351625836,0.8327285921625545,0.17184328235330026,0.7255507220292625,0.36800077154398453
5,4.587871719995406,0.401954049309213,0.3779606513034306,0.02900587967908571,0.2678907959033212,0.09944031525549298,0.5459317364375357,0.021799269590969332,0.5367036417732628,0.10154501294638021,0.8033648783092725,0.2855455124340379,0.7212742920857741,0.26762403730604356,0.8377947470423507,0.18918100578609637,0.4232534238994665,0.016266613028210725,0.5161648807547435,0.2610717489049039,0.9277396056868434,0.20988679204852045,0.5708964919672151,0.18958593201891816,0.6572490533440216,0.3684055604427784,0.7513335061109425,0.2655306794863942,0.380991501150837,0.028255983030085006,0.552904840476896,0.02641082413061592,0.46104277587680637,0.01735206414139488,0.4309355585378811,0.01560333278847237,0.49253908594993867,0.025670782777673613,0.4581590812806391,0.016697548113929064,0.7084702107950567,0.09850461335254505,0.5606621077103853,0.04553318626009372,0.6005109168024562,0.04098160162190071,0.8424534629507086,0.9624795160632806,0.44486171418989334,0.056281268077256946,0.5544932206363926,0.07094030911970839,0.7686843010186425,0.33710159423225394,0.7238108991879458,0.14382308036313637,0.5895584215252837,0.15520459492593253,0.4567307692307692,0.2741851952141689,0.10026675353435441,0.5792317799602419,0.10855700796753531,0.7154308725179261,0.22251945033923037,0.8353530040354695,0.17050299586082343,0.5150396620252407,0.2398339077172783,0.5402802129524814,0.16439124928069562,0.653002531434294,0.3747830174448571,0.7518349012628189,0.2470894940220318,0.8307452256471666,0.9592498397723404,0.7409318443535063,0.32194121899135464,0.7262507287906417,0.13976569064644173,0.6511169052903596,0.27717278414335844
6,4.448324100378497,0.5514082894435539,0.4329132988178651,0.03437979989717424,0.2663831617002531,0.09941872051547156,0.5916061963031223,0.02642350523407777,0.7092315933054281,0.18536341387789532,0.9125924260202207,0.6286161034725372,0.8373157407285093,0.41936046461387405,0.9242406015315321,0.4155893525731158,0.5616349337355684,0.02713041037463281,0.611301676765537,0.3873239074948267,0.9106415047637149,0.1806622854452566,0.5765378834937632,0.15841838116866128,0.6993175024893172,0.5031998608556683,0.8219360157250868,0.3733695461187689,0.38293816352265275,0.02921242030130184,0.5467734032120197,0.026639630523640566,0.5392484545861346,0.02377505425931811,0.46852840964864756,0.01689571134392444,0.4876091191454123,0.027149996647697877,0.5266405162500756,0.026185764220001184,0.7055881806000421,0.09085863677937434,0.5737607018640953,0.049196994570472954,0.6607694420525644,0.05979535209295016,0.8556465258214657,0.9661791656964789,0.5414386630395694,0.13768149921420653,0.4965909287087838,0.05376832594241153,0.7808154665354261,0.36482091709143805,0.7996154799727668,0.15176168127396894,0.6378376292718362,0.20233988524441282,0.5716575091575091,0.27398662133566004,0.10054154685869703,0.7309971639962489,0.20297804804428665,0.820873767581357,0.36098050834227563,0.9156873904847873,0.3869528708138031,0.606033291250117,0.3511433701753439,0.5291224434211982,0.13034875832466353,0.6912993768777123,0.49475345383310193,0.8194037484181884,0.3483388870107101,0.8439381083722809,0.9630490745587945,0.7609479222548429,0.33442811188811744,0.7937687883261177,0.15796640608525098,0.7078235111198645,0.34831645781227677
7,4.340696365030182,0.49576368216166705,0.5275884608333135,0.0451778014258707,0.2523212681628162,0.09838846330349117,0.6242047482349289,0.025839481348682487,0.7578647565730805,0.19725351905117583,0.9289164201430451,0.5937000137578969,0.8796424725540589,0.3962142614802249,0.9240243489041381,0.4584266853408051,0.6091560653062773,0.031215316513363157,0.6236171570247487,0.3972841772354663,0.9301184795892884,0.22515870236403174,0.5840645088893625,0.1685949977088414,0.7529646593173873,0.6252561365958981,0.8570869294771644,0.44390364760075374,0.3893889782161324,0.028947442153365845,0.5074683530443149,0.0181891301185232,0.6039573848944669,0.02757969708665469,0.5590530441826292,0.02271981515836373,0.49009664414879356,0.02541756981930616,0.6005314561520305,0.023867567731236418,0.7103083457741056,0.0904515317516587,0.5829798124977936,0.05255761256232714,0.6782698591103105,0.06458763911689208,0.8611444014416725,0.9681763150550693,0.5680085638096835,0.09660696947864059,0.42573987321207674,0.04105634490966781,0.802664375579816,0.37283624844656627,0.8385488651437518,0.1703367088722555,0.6618418604524885,0.21147199244396403,0.5519688644688645,0.262637020990663,0.0997327535755601,0.7637705527551555,0.2104276625178464,0.8550087475868727,0.3332047644377503,0.9174064474592472,0.42412181459947557,0.6146549304092912,0.3596933441039111,0.5447364053416858,0.13871898366749819,0.7327044620006677,0.6014257431886055,0.8553933559536022,0.4445497292661764,0.8485056251040557,0.9644891419191322,0.7743386853240212,0.33309408058525847,0.8151456134039587,0.1584357525035678,0.7258456223935655,0.3698085245786165
8,4.2763684274549565,0.5517136096481184,0.6971589837200713,0.08090270177863457,0.2925794498799521,0.10301252558923696,0.6741506213430495,0.028975964762587455,0.8611004203474631,0.35944446847341616,0.9436507201150088,0.5907458291635923,0.925432451843926,0.44365162841162165,0.9610412412900813,0.6427447975232865,0.7275164198549802,0.04257256300201842,0.7245377404241442,0.48856304172306386,0.9603675718203777,0.3023256373989457,0.7530809305416115,0.2354537187633629,0.7984989907416998,0.6947148391448419,0.8898777759828533,0.534186609811275,0.47537654167623733,0.03600584648888017,0.6719308937386352,0.03863554449483395,0.6441488634810731,0.03169288617651515,0.6142380570223652,0.029376775202412084,0.564765223292355,0.030443186090642168,0.6651202112207226,0.028817382290579733,0.7398445931737091,0.1042233286423187,0.588210004488353,0.0518528324440142,0.7168573898419898,0.07284203054009833,0.8608776588659699,0.967943386396732,0.6425405313701767,0.16010653719654105,0.556834517358938,0.06662809828481275,0.8279958478787766,0.41467620049929255,0.8687331530504366,0.19675516836742415,0.7276469186801835,0.25101087143188816,0.5808150183150184,0.2962457502181304,0.10386971732759015,0.8658109603664775,0.3896934395868869,0.8913090785300607,0.3492934045867487,0.9520124249986724,0.5848669185024431,0.7043012319695405,0.4363251485165448,0.724631567524321,0.21039643999940075,0.775225881829309,0.6618891483043143,0.8901484930049596,0.5313101833246585,0.8466614959159204,0.9642095703346858,0.7969236973610527,0.36002894704357535,0.8460835514536531,0.1841496380655195,0.7808503757429179,0.43418477778112424
9,4.135202028980492,0.4016487291046485,0.3887770424309093,0.029927318904078445,0.30448951738783553,0.10378026823208755,0.5279520199321639,0.024783990943047295,0.6979540118721717,0.1841391249724287,0.919085732332293,0.6622388662327598,0.8410480780380122,0.46653395317725915,0.9163313883469048,0.4170362790376837,0.49162832468464707,0.019078728968535345,0.5134893891281531,0.2917713794919061,0.9590375771023443,0.40588807685602446,0.5511311105087626,0.15391534067164267,0.654068575438675,0.4759659322861848,0.7094146945419708,0.18519419838825732,0.3694846379835809,0.027074051049275235,0.35112226329199514,0.012355191687512132,0.5340754713947712,0.025326017744454102,0.41802650972740196,0.01505320572643206,0.35745794804991426,0.0181765260038479,0.5317496822610905,0.03048537703548431,0.5461312529001917,0.04290762007494028,0.5760814493177535,0.05178813832606212,0.6748274476234449,0.10313384920481958,0.8642871303132171,0.968533606292735,0.5326732691102193,0.1450339542124336,0.3062610780967331,0.031240320016812588,0.7287918300297651,0.3081516928195377,0.8007721765081229,0.1976259225843684,0.5950425780871498,0.19989403447928186,0.45604395604395603,0.31557822105886013,0.10553123315399032,0.720728949616308,0.19966635462116053,0.8230692826116933,0.3986202551710852,0.9060235026283651,0.3632990478088013,0.5066550285864181,0.2598719146823245,0.5114907737613945,0.13320502294814673,0.6372510292644931,0.4473243759032579,0.702472155734998,0.1750164753179883,0.8487803136476854,0.9645280552493628,0.6926569560991995,0.24383692306202165,0.7905584913930344,0.20072370286675717,0.6777513367638591,0.31742030552589967
10,4.0408160939270115,0.4985115640027479,0.4668677079762883,0.038255992550412815,0.33751492471247385,0.11731331967619019,0.641294792839294,0.02969044746287786,0.7767795965046391,0.22864014962694756,0.9216913784011569,0.7104909057843344,0.8501398288686436,0.48756030763860353,0.9405617145206754,0.5833782732383295,0.5928935310356603,0.03741069276362878,0.6927683573745419,0.48172331676003466,0.9610469343599649,0.6099651897633226,0.5702643739691524,0.17756997057669466,0.775659906238053,0.6683998108759774,0.8062921847573733,0.2658107265613289,0.40311924707067287,0.029451102172976765,0.45958781110581104,0.015365340944122324,0.5829908012036409,0.02850734520914627,0.5042887790373982,0.0215629985318632,0.44909643771518337,0.0270527489172702,0.5688914694668039,0.022133670370889782,0.6810884908227941,0.0745230869030629,0.5930741519618473,0.05824702296383129,0.7088010137452123,0.11333566931345847,0.8689287412234604,0.9698913400320409,0.6026901425795055,0.1722589917127698,0.3717979968404798,0.034177557443217724,0.8028703863638891,0.3867826791920061,0.8371058092406588,0.19212857703122432,0.6580780188864916,0.24376397163024302,0.5647893772893773,0.34789722297439596,0.12009859669435376,0.7869044022057614,0.22095129522589194,0.8195476247931606,0.39034809365728207,0.9347081917379069,0.4998543878022107,0.6752687215343858,0.43669606887453544,0.5254290754185427,0.14970217366810873,0.7448735673750975,0.6205384735036563,0.7906327537985394,0.25430445925036044,0.8513118928117214,0.9656061328277492,0.7709947385789938,0.3198736374492401,0.8203939397698469,0.1840077437733219,0.7334511028180319,0.37836191479333725
11,3.917000096205145,0.6256010991527364,0.4959660544754526,0.058544616828584174,0.34645657089022447,0.1173207486422029,0.6834993127092431,0.04050381235672614,0.768729923129086,0.2827019448123329,0.9298874146472795,0.7202959731711733,0.864438712830742,0.6012213757528574,0.9396056193446707,0.6363740935651185,0.5948420942785857,0.04151417783258957,0.6526441342274178,0.4652994122169645,0.9729229606416152,0.7986303818074774,0.5406211612463461,0.20357302173540776,0.7357973296104783,0.6067226600658333,0.8354402387688421,0.3658072096512148,0.4153996689125344,0.03612477977862268,0.5755829630324137,0.028631634282591877,0.5820167952390268,0.02839167209071094,0.5394719785032771,0.02493942190700277,0.46134139136253305,0.025209740980071865,0.5292263057556135,0.026579101576470393,0.7620866086309704,0.13628502500380624,0.6041829936810041,0.06075918093414093,0.7438105892225537,0.10133498751608652,0.8781018094123174,0.9719429020271054,0.6303120150760779,0.23754051759371902,0.4339676508624521,0.0436256078940763,0.8582124131628331,0.4798436042386616,0.8653583059381914,0.273846897830915,0.6755527042811771,0.2745764630404616,0.6955128205128205,0.3548639568352539,0.11973182435013485,0.7789632434060954,0.27666512639662977,0.8377645821842251,0.4792147026510033,0.9305773111028512,0.5328425117809482,0.6378488164287149,0.4173495285930001,0.49027797873879697,0.1475471583669845,0.7047763436074329,0.5495591834674924,0.8255234955621604,0.33242662183072264,0.8604605878407696,0.9670689159436366,0.8251084295591627,0.39464625440792295,0.8385361748932141,0.23693622798930583,0.7349728109235162,0.4049080050707074
12,3.8084821878121233,0.5740019845813297,0.5825323898042529,0.06061329474220132,0.35604686203856745,0.11744106267957835,0.7332530518198199,0.04738099146046087,0.8550236350380818,0.35540699035867124,0.9481641019247082,0.7263172469680254,0.9099246205955497,0.5925613063150189,0.9501079752054944,0.6873994540174592,0.5735470365205403,0.030933412240104055,0.6802878102483775,0.47443966383084085,0.9684246700981032,0.5975156210390237,0.6741368964321034,0.2851671367159054,0.829965888344832,0.6744107550320937,0.8693889406059535,0.3991584599568836,0.43470824926118073,0.036393488119378564,0.6701085889054125,0.037001789527356846,0.6040317416084093,0.028734726671210777,0.5751916968458535,0.023784774773848424,0.5088913566010113,0.027286612569376457,0.49103408884585126,0.017703775149968525,0.7900014424923486,0.148126799574529,0.5993588547471478,0.060889968515010225,0.7844534984825837,0.1654948914174821,0.8770738995219104,0.9721210003124569,0.6763336492741984,0.23035281507925776,0.4340014053191355,0.041663337846022594,0.8801482678652393,0.521319180365318,0.8510877864656395,0.23515579660017927,0.7076751261078633,0.28128793895843196,0.6211080586080586,0.3673713030658603,0.1249441520165391,0.8517354305422888,0.34133119857723915,0.861271028681743,0.47187434181611726,0.9394920153454044,0.5856661741190574,0.6594944184769352,0.4207143284355741,0.6341288907235447,0.22517005279525013,0.7924681484366307,0.5991665745179283,0.8491645989870562,0.3510139197680283,0.8538015765082277,0.9652800249588339,0.8385828982690315,0.4180490005063289,0.8258066316847159,0.21556611213265847,0.7703015400655854,0.4289796254221414
13,3.7321406494851384,0.6575833905808717,0.5791127279442438,0.06822683685905047,0.3600803863761578,0.11723417192292587,0.6532274119953096,0.03602443138382601,0.9011741288393451,0.4269947056471465,0.9286407669717661,0.6514926855797804,0.8770784132701411,0.5454515033050087,0.9109866492545244,0.43907745455857894,0.6195583636116407,0.03729688604955322,0.6007574136679545,0.3409565899824043,0.9737859764897245,0.7445357754096764,0.7310666602907308,0.32062538999360624,0.7747536734731333,0.622472010630508,0.851896337566643,0.35081652574997996,0.4571908393777109,0.034638519380995526,0.552972079778319,0.02172783418729969,0.6123677321336223,0.0274738311804796,0.5747102535801021,0.026300173567957927,0.3686779706864274,0.019087151805784075,0.6183774133026689,0.07707323060377433,0.7215586564313435,0.10001012220486305,0.6007045201244636,0.06216610560099527,0.7893373921337011,0.15478236989406718,0.8692266381552896,0.9700380084508186,0.74670464616479,0.3156452328038538,0.42133002093033983,0.037328755942362984,0.8135432791342523,0.39960473432653776,0.866829969055955,0.28623467386551715,0.6953944563237149,0.2679005818847167,0.6096611721611722,0.3713520073011002,0.12267852096668229,0.8915848968215339,0.3935391155424089,0.8206970921814671,0.4152300230126705,0.8906926173472097,0.3471055552281931,0.5820453977170751,0.29702187202156766,0.6909872351924828,0.2596727421567527,0.7335853176810949,0.541422196480419,0.8258332821893147,0.30782057189442996,0.8467919183278827,0.9620648256566873,0.7676695119453031,0.28940757616996154,0.8206182625631102,0.24033400736032318,0.7492597762970522,0.3796633642263724
14,3.6537961129896166,0.6267460499198535,0.7269790595531324,0.1861314602594951,0.4278417872711685,0.1761775490686301,0.692423479433245,0.039387011207730346,0.9175474460610687,0.5036622500257087,0.9499051098853389,0.6699129853376861,0.914357080756798,0.6046417550634644,0.9757030183191832,0.7914765348145788,0.6523574389769569,0.037050508519046954,0.7526475008390805,0.5913984700055194,0.9871259251728793,0.8222150794749976,0.8102868193305816,0.4705465676145432,0.7864937784957214,0.6872995231035646,0.8431003043752636,0.35762400424061447,0.4713147098866173,0.03906673455655059,0.6165099688680323,0.029871142705595818,0.6276132030728749,0.02962064066693975,0.6139787895204976,0.03925384256369707,0.5410302223550991,0.03331514710152372,0.5762879773648854,0.028360245502451385,0.7859346568345462,0.14659127397777613,0.6105567070618434,0.06349732398275883,0.8318553761692362,0.15240974721317407,0.8733892278573632,0.9719387627657924,0.8297510508254311,0.5250059860442836,0.4492623491710447,0.04642686014078465,0.886137280378935,0.5490292952735965,0.8934521991825002,0.3670227042014719,0.7423645358155305,0.3318123483493325,0.6678113553113553,0.43678430664620754,0.17909041327020112,0.9027443147136959,0.42210750669579106,0.8589106884307778,0.4373002610891639,0.9620338966176393,0.6561349491391802,0.71583182871773,0.48693464225647115,0.766335293767182,0.35357221459930893,0.7366817347279404,0.5933152559383769,0.814513211230642,0.29508998098148953,0.8465613111022625,0.9645377410821034,0.8306279206716563,0.4238978205210654,0.8526281947907492,0.3119900276720994,0.7930593364924075,0.465815528476841
15,3.5205568456347685,0.5972826501793757,0.6643467867932499,0.11732171820875906,0.35579062812666384,0.11909323031234706,0.6202400174494267,0.03791703807026112,0.8302711370252077,0.4055007458720336,0.899050525111156,0.6147487538298761,0.8471918273010728,0.5341949589972713,0.9259742323577396,0.5483808357715138,0.49928691819006865,0.019791124478068786,0.5977918210822433,0.3712417311303594,0.9806969543607164,0.8032966660909546,0.6488331262147917,0.3052993939780766,0.6642104626288247,0.5171350497546816,0.8335984720674262,0.5206052774050032,0.4492262236809238,0.03813267132527667,0.6547686181006146,0.03619469414591983,0.600539320634189,0.0338433625286388,0.602451501615926,0.03456707143655972,0.5316180361282545,0.029561478746388526,0.4974463626460086,0.07797901772718288,0.7990781952508981,0.17772053670074267,0.5963956172157754,0.06526015731635518,0.8165202892274405,0.21384001570700076,0.8685997307936766,0.9704658671279971,0.7672057312153286,0.3900127692657248,0.46826636595138993,0.04832080689328497,0.8986946782656148,0.56615619216956,0.8772623538935338,0.40589060672385424,0.6961242938269689,0.2963878433968034,0.625,0.36829196377531065,0.12900930898607196,0.8326905812806337,0.3901636320715026,0.792583080529509,0.33884552411615637,0.9054369325120799,0.4200421024670094,0.569284058642425,0.2978613615034863,0.6014285136733877,0.21985706420145243,0.6295803660843441,0.4448554095988966,0.8031978162965301,0.41045712908727866,0.8420012626929605,0.9625439478942164,0.8429024302448537,0.43140541629153406,0.8359259672757495,0.35828545867481987,0.729392997546162,0.4003023958993113
16,3.431226311344362,0.6865124799633616,0.6652667176826013,0.16818036900097155,0.37711070124372753,0.1363280790858269,0.7027388792842222,0.049690390762575296,0.9144072209348105,0.4678223064953425,0.9246929922438613,0.629547945103789,0.888631174205341,0.618082869803597,0.9052537719545526,0.5928856466174253,0.5393445655576743,0.030318593003828283,0.6329438932140363,0.4540480731291453,0.973358778119841,0.8475404942360683,0.6895495687478335,0.3630274979537583,0.8116855593474676,0.6768251053834707,0.8738257934243527,0.4565698084649222,0.45168928941424175,0.05083957088319668,0.5661386642065865,0.029914809727257866,0.6251420146248269,0.03585993021336617,0.6469540939162806,0.06980647324370172,0.4683857603519337,0.026407996876784152,0.647394540942928,0.1276200898593879,0.7732673146875266,0.15836095449576715,0.6082030954506256,0.09250244777256533,0.8305945137106682,0.22253939466880648,0.8701135873524019,0.9715574348370202,0.8026629426256193,0.3976035149637786,0.4260719423422346,0.04282020926503037,0.8729532930981222,0.5625891816195633,0.8694686686661847,0.4172135466841575,0.7169573828648332,0.3220926938574483,0.6527014652014652,0.38612169168898114,0.1437466884628713,0.9003610963326997,0.4095806838268069,0.8312577564809708,0.4345771626290529,0.8749975110178942,0.4730433516581345,0.5890965096497377,0.35081919106002923,0.6264112783106791,0.24174965544286822,0.7503215756092133,0.5629305107336109,0.8410473126010095,0.35310240993004455,0.8415262045220147,0.9638678455189506,0.8083146176791662,0.36388886319913444,0.8330728294443823,0.3256826139371875,0.7529571257578862,0.4202717251271537
17,3.3159744313687516,0.6392641783069994,0.6260869117557186,0.17636973173946013,0.4426356441054355,0.21411958560547312,0.6757623511053011,0.04654945238417499,0.8205764027411904,0.4771247876217582,0.9508087539020895,0.7346666608665695,0.914210610261521,0.5840807781905972,0.9206130812356017,0.48362173117686086,0.4848583164944835,0.023661987997741253,0.6993088445936686,0.47313631560609726,0.9632456909983359,0.6257678753847952,0.7331033723255205,0.4254686402242504,0.7766669404060115,0.6717699442740951,0.82142514022685,0.40796857870146985,0.4926616981224314,0.050950542290703484,0.6571724658995797,0.03511290811427126,0.5858227201963553,0.04941472743822997,0.5839697001713713,0.05503424008476146,0.5317523366149159,0.03843529443770211,0.6859523467288023,0.13700746027303165,0.7821574993091679,0.1810409797920321,0.6215150124480351,0.09308789450051999,0.8275885384105972,0.19949979631823597,0.880609643149629,0.9730329319198565,0.8292253924751926,0.4861361875550656,0.4479706614507872,0.04641778770840273,0.8877224112717268,0.6021219992379189,0.8502156685276291,0.41127157677592924,0.7219865983306647,0.32232853319333343,0.6206501831501832,0.4393948511197361,0.19168461635471956,0.8224332511643985,0.44134728520273087,0.8572785955598455,0.396272926942916,0.8936225641161789,0.3716221339925185,0.6575054112471104,0.3677967693303881,0.6880133371917849,0.3114906041869588,0.7009805830644263,0.5602223542763016,0.780965073019046,0.303550718350629,0.8514375792143105,0.9634354405361303,0.8009426378348427,0.3884982377496175,0.7946764169550816,0.2990981128262747,0.7533863909533419,0.41772901815901675
18,3.2399582791242896,0.6200290054194336,0.7271765138048587,0.2298932451730142,0.40457455462769853,0.1458684934565604,0.6591974727608887,0.03759166960644222,0.888619418758116,0.5577903878105114,0.9610767274907648,0.7674724861997118,0.8954875223038788,0.4908902000425151,0.9426673233717211,0.638092218090966,0.5449981500981871,0.025501223694485133,0.7040066987533375,0.4890649635761105,0.9861579330052178,0.8911662406025511,0.7409353986913669,0.4419499438529107,0.7162899484467937,0.5716832800558911,0.777037468335404,0.38945117941551916,0.5010163996782879,0.04566847422090932,0.6625832621018766,0.03773024871589191,0.5697653543264889,0.042760138803243114,0.5749509752129778,0.05280570718887195,0.49841461360136485,0.030331978999933982,0.605218105065666,0.06813563725302352,0.7581133242844457,0.158149811995004,0.5972805960263787,0.07222418907591972,0.8340712587392554,0.2888443803844956,0.8698224115898618,0.9715111045755109,0.7979973563151382,0.3604952347807485,0.4578942140480895,0.04374490141767406,0.8629751710094266,0.5777807291297425,0.8997971415303458,0.4984536709500032,0.7199305671843644,0.3305574718173393,0.6110347985347986,0.4020138199396255,0.1517438213783989,0.8819057387933443,0.5194317110157294,0.8356207770270272,0.2762497898148627,0.9136538921042852,0.4734689282008507,0.6653666378782696,0.38351132968097806,0.6644322756636678,0.28881148572223575,0.6528552353399355,0.4646900691892216,0.7352312148019557,0.2704760030289881,0.839305016126112,0.962675680610984,0.7724634650284252,0.343684779827404,0.8425326353483101,0.4107635130958306,0.7459437007319051,0.41322791923322577
19,3.125899319593783,0.7255934661476223,0.8459006570958648,0.1866267174755621,0.38955492338721814,0.14604779603202256,0.7644398763315802,0.06323416556723271,0.9450973081561135,0.5664040834835817,0.9586566484993043,0.6776546727133566,0.9511796409558657,0.48753138993149503,0.9722982147237482,0.8419910480352368,0.5624923711314125,0.03694861724330631,0.6528519509530663,0.4777849801208438,0.9789015277922044,0.6775912425926325,0.7142747645186799,0.42063163608454374,0.7985596333385904,0.7059866575625047,0.9120957110476559,0.5825946382520804,0.5438783809394339,0.08974906942186946,0.7900109772864613,0.11180714293876506,0.6493387611501577,0.033859762131816726,0.7564889934950833,0.055118136912289444,0.5719824507703296,0.034206831652151534,0.6508259320341342,0.09086742816055828,0.880088044171549,0.27516378121098983,0.6549009620540855,0.15289140470796053,0.8305999902265256,0.16281111487678138,0.8541500135567415,0.9682270904370202,0.8507037762902866,0.4599715517658954,0.5909104143836243,0.10449962272237134,0.936468822967883,0.6163282090974257,0.9217767883587707,0.38548427921935285,0.7751269457635692,0.34859307667961653,0.736492673992674,0.39428187461764497,0.14800163803023025,0.9170697472325673,0.4776921432922126,0.8468558242553778,0.31088830480722424,0.9338702344289279,0.6705940041428049,0.5957280677667618,0.35866307885969667,0.6312010068856337,0.26256805266076977,0.7104389673973517,0.5634381844170233,0.8666280894640399,0.4342321819699859,0.8309328444800171,0.9598195263452509,0.84921485178753,0.41024491012912606,0.8619846261355695,0.2833510697610978,0.7671096485864929,0.443590281310493
20,3.0004415270954805,0.6210212960842684,0.6668948434049948,0.19123652773683972,0.39501672689989387,0.13353146378207553,0.7505022931650068,0.10344398996550103,0.8097560725404473,0.37775389311980456,0.9282062642718379,0.645006097767478,0.903722466604727,0.6463556924512405,0.8836206180090419,0.550094833155224,0.5389851786499195,0.02652777315031621,0.6992984425031925,0.4884319538834401,0.960334863409233,0.8187037737567557,0.7134867858926932,0.3743228887346434,0.7857423017808299,0.6144710157082891,0.8457144050684532,0.4208396159787451,0.5395083310955017,0.10952042313100346,0.6916612658508526,0.06023683345232697,0.5784145138946574,0.07951522706247804,0.6139334551740727,0.07338865580859694,0.5341839821755255,0.03479004697544247,0.6921185620044785,0.14317776016492972,0.7784422125399509,0.20373268609560266,0.6240257164134193,0.1537859705119066,0.8419601798319298,0.28663324825128056,0.8697616963463152,0.9714634941120488,0.7976483912234378,0.3468538659776827,0.45193848495053685,0.04374225643544313,0.8946574047689863,0.6260272139008598,0.8303455452822337,0.37473023939638367,0.7266622593982285,0.3295673126098644,0.6279761904761905,0.3991944720241498,0.1379378018369014,0.796827367740958,0.351352774522575,0.8200614916574738,0.3699317953803004,0.8488416277279244,0.4216729321235517,0.6389428777863513,0.35469805037575697,0.6367966482539087,0.22992125574577554,0.7128446645154111,0.4784206502158738,0.8007154317578054,0.3079119938128056,0.8341019633673319,0.9610127051121371,0.7870458968992543,0.345175690577966,0.7671415693912066,0.2568183201129674,0.7311376373747067,0.3831685427106011
21,2.9088221646913017,0.6706358293260056,0.72475923534554,0.2267425265315925,0.3775489574209955,0.14235707160366143,0.6241130728703868,0.042790535821504175,0.9001642938477447,0.534006688091056,0.9652801172283832,0.7150920172408005,0.9145353527792333,0.5532285718696306,0.9101294460020716,0.5703111299917811,0.5827737775627464,0.030402658005397164,0.6335800606298786,0.36618488830693985,0.9893403730084886,0.9292526468985598,0.7589392688526665,0.46948006689697974,0.6472816438794216,0.5022130144941614,0.745189279937046,0.34839999362240476,0.5234920419136373,0.08546409082959643,0.6696115655704664,0.056833572111364514,0.6403350674301516,0.08426605864055942,0.6431122890547901,0.06348919823650229,0.4638776774083328,0.02768228826424003,0.6384952036555105,0.12634385841525403,0.7719455224516113,0.22125208154694526,0.6398542209849833,0.19840545374269059,0.8539893469128459,0.23496207002617878,0.8645235152671463,0.9706568957959163,0.8388755627491965,0.46318449279887486,0.462607212270956,0.04587001436112566,0.8775871452204581,0.5890657953957907,0.9107100471525021,0.5613712875261553,0.7249130110150813,0.33923366544687644,0.5908882783882784,0.3698725316163713,0.13626581255383413,0.8929171306991094,0.47875421740623186,0.8386328771373415,0.2751198468334757,0.876674255296554,0.40185695271807154,0.575790901127963,0.2672003405833424,0.6650551957171188,0.27510939200268275,0.5741165016134416,0.40429517986629565,0.6873621668697815,0.20799261257379836,0.8288009116453735,0.9602809577578943,0.7655546742245997,0.31120900761842013,0.8383521681780027,0.3841408534350701,0.7193753921932416,0.3729295612135561
22,2.8052417259800118,0.7340661018242882,0.6230133345555902,0.14534093924299998,0.34039800153580035,0.11620005101994164,0.6728130027506269,0.06920888706004734,0.7528733294257022,0.3141448871366119,0.9143100561256916,0.5569677108870382,0.8583655384952593,0.5479822457642285,0.8711524283843661,0.4614013346346687,0.527086831545095,0.025893573374137682,0.6234982805842842,0.39626800403384327,0.9654227893644622,0.7043999943865292,0.6785980938734133,0.3525293000463087,0.668041289225215,0.47073088503292515,0.7987694179499406,0.4169202283944981,0.5677332194438882,0.11049087001275351,0.626244782538176,0.049085963450551454,0.5662417839180495,0.061383555680023294,0.5770211812557089,0.07515828132126734,0.44465752189501306,0.024050984790186594,0.672717575500817,0.12034718054480116,0.7421974198504326,0.1980010616656253,0.6442245655795439,0.20143556253280362,0.8324653757816673,0.3085813525555012,0.852603041449635,0.9673115945500537,0.7548812536149246,0.3117958542073149,0.434860726792716,0.05030359442158432,0.8648482769234795,0.6244299027850472,0.87900291334036,0.4010208449555435,0.6945941493222171,0.2993105423884013,0.6284340659340659,0.352651161857769,0.12217123035127478,0.7384128305442044,0.27389298215599084,0.7649452306260341,0.27135594531109075,0.8220643285721871,0.30893269248379357,0.5745831690656146,0.2933925965859687,0.572698121558247,0.1877082863021591,0.6012988205185268,0.3688593744037593,0.7354772905944689,0.26542330005455517,0.8226073043108251,0.9585864954515251,0.7372669814141386,0.33702599619552254,0.7942246701317819,0.27350279187591814,0.683293628108527,0.3328046991974144
23,2.7317542234146632,0.7852835661399893,0.8344300430712656,0.33875687093316487,0.4932487218140471,0.2842717319839657,0.8249392124628725,0.15920277108869074,0.8837192561445263,0.5366842580387264,0.9570101795573417,0.7188251895871284,0.9493219425155595,0.7112976754762398,0.9337087056961245,0.649375901645629,0.6229822630781734,0.0582295251154357,0.7353147080929037,0.566108298672586,0.9834924184997007,0.8776167306389906,0.7191248384004335,0.44509499042269035,0.7870296854766036,0.715827261224529,0.8809155831586508,0.5791757797271877,0.6904518868436261,0.2647071303376813,0.8054654088868114,0.10178219449971226,0.7048865758666242,0.1450910358557088,0.7358820977288616,0.12430790827630661,0.686578730694305,0.0830716637222327,0.7076450251165043,0.1426646722253176,0.8275998317671575,0.3082062911582283,0.6863053122263071,0.25152381606055313,0.8853451384547463,0.26829781253242413,0.8718033996287137,0.9724143201813605,0.8771908162737274,0.5332039113276755,0.5238386341143153,0.0781278821637775,0.9433016820577289,0.6981223554157548,0.918651134212873,0.59485604871698,0.7951919715496483,0.4150682972973584,0.7291666666666666,0.4541352508750289,0.1902800243156585,0.8500374854042023,0.47106991218869515,0.845577082184225,0.3362489220976832,0.8705488703339882,0.4663584363255916,0.6448611177159091,0.40386302031941257,0.5913378471542501,0.231110516806387,0.6782449649493714,0.5390891135836162,0.8218227143738073,0.3739474801299768,0.8347008863988005,0.9596475516760641,0.8187588352239754,0.39037571121144987,0.8308182303102478,0.40566883104037865,0.7491675713567095,0.43342359269953756
24,2.706518853814463,0.7885657583390581,0.6994852571920511,0.250819785435765,0.49104192172049543,0.22205066723971262,0.8465581298664797,0.1287778993312109,0.9099956596285675,0.5540049732854694,0.9142050698603957,0.466170440391427,0.9202363880901813,0.5780800257441211,0.9154546669516456,0.6318864899156095,0.6828484060803268,0.05725138714609877,0.8046299785096348,0.6047285588216557,0.9594709635500118,0.6363607876318522,0.8237874561887938,0.5259598566421761,0.804400748801535,0.6642704990015991,0.8473043012714652,0.42802907496577325,0.6683721064167616,0.22806782944255496,0.795358469311846,0.10999823371185956,0.6974264538412276,0.08492782477637517,0.7201465835512004,0.11948240618970228,0.5774002652790532,0.04239590984136968,0.8302373963565939,0.13187581461880163,0.8130580316409828,0.2406813193199722,0.6611826389834469,0.23587120109959167,0.8967883183389138,0.28994354633280633,0.8678072661192434,0.971348143154397,0.8999257855562841,0.4636897129290287,0.5285457059821915,0.0690839494327411,0.8989968640886256,0.6995133753298206,0.9194856836400509,0.4123949941153466,0.7923759450673337,0.3647283224387718,0.6911630036630036,0.460022264343954,0.16875772289112723,0.8803453707484978,0.47479894411509865,0.8221589733866519,0.27633988344017335,0.8561816359581584,0.44788475075292367,0.7169237424507159,0.4174244420010245,0.7241166344656186,0.3007898626212834,0.7162568154000222,0.5031691329921348,0.793405051860035,0.2964534165111511,0.8321999091414818,0.9594641999227351,0.7549286041696641,0.3476651994893244,0.8319553504604303,0.27205897463158013,0.7625903956713845,0.4058915026698688
25,2.5366880478508445,0.6742233417296389,0.685120418862079,0.19603921126121782,0.4158168286453304,0.1293327184386156,0.6282426729242575,0.047296647520725946,0.8406013625299662,0.38184170987216687,0.949421625012695,0.7183368574321495,0.8802262752045449,0.5493979009135728,0.9173438552772945,0.5216278964127946,0.62647984239469,0.04323523842431329,0.7222336050352933,0.44338365144290104,0.9605392909788876,0.600717376188891,0.7275253625309858,0.24862769270096988,0.5884890428050569,0.3761674238838589,0.711891916112726,0.2410963472801577,0.6181837937239372,0.13064101557260427,0.6755741346661199,0.048858780146316776,0.6223941656104888,0.10642427304500701,0.6389688796571675,0.08833765586779156,0.45449633758301833,0.028778134726445293,0.731024178417963,0.1791327557513168,0.7624922444311975,0.16010448972822247,0.638858546277945,0.21658313214576272,0.8556708479163122,0.2871697318319202,0.8181814003141503,0.9600233537780125,0.865618472256702,0.37629463229650906,0.46804110004486,0.041012027168804005,0.8585796325043882,0.6150298593968602,0.902528153979884,0.4455757022471419,0.7246127402110348,0.3030024524250019,0.5235805860805861,0.400338979651192,0.12958814600987156,0.8250829163209099,0.30938805726445157,0.7834228919608385,0.2810286249300785,0.8710665786120109,0.33823026962355157,0.6513917374743627,0.33317734747519845,0.6474623588189735,0.17444307230006528,0.5390878491153889,0.3077249271397085,0.6642894926805604,0.17490079013616727,0.7910330584383483,0.9495368363940784,0.698445749384777,0.27090707532516123,0.8249558590632612,0.2745146954887371,0.6996888610473294,0.3221308947351882
26,2.523530523209761,0.8295549958018472,0.7384578939187413,0.280631148966203,0.4555071676916914,0.22006588252818704,0.7827828175846889,0.13127119742739446,0.9056352135360162,0.5719176320358866,0.942356203497978,0.5768675426158099,0.9355091938215014,0.6528970657388569,0.894698738095402,0.6097852291103866,0.6085386408123123,0.06066381178993122,0.7216707345753719,0.4962958215417096,0.9686138484760755,0.8154601002572367,0.7649706995137078,0.4964610502163089,0.7100114566137137,0.5638246461789309,0.8523446812582394,0.48698802878923275,0.7151958030109941,0.3014980583360175,0.8310201074596957,0.15920474048508573,0.6804871905487928,0.15613569465684254,0.6993242559734558,0.11594539343070931,0.5808797393716351,0.045245603461541634,0.7054397657810325,0.20373164743166253,0.8270573329880622,0.33046656245643147,0.6798709136235801,0.3970234322608738,0.9030096403529909,0.2956062414582965,0.8535053533194078,0.9682358418011725,0.8932992152133714,0.4802853964978636,0.5676385201736989,0.08941946668145151,0.9290924694730585,0.7013434688088058,0.929151820211583,0.5659207926420537,0.7805951635887702,0.3990070925038846,0.7252747252747253,0.4203841100781258,0.1567197706103753,0.8722631518912061,0.5133865738761283,0.8117599024407061,0.31951253496554133,0.8298158485105931,0.41984390538318656,0.6336176890638351,0.3457344426081286,0.6389792622413631,0.2814022158363495,0.6316921664626682,0.4330036257882751,0.8031072183206641,0.32780695120670644,0.816128443488661,0.956255983709299,0.7856472371522538,0.398528239793346,0.8307148557511401,0.32139849425045514,0.7340099895819286,0.40669024891161737
27,2.463406910387471,0.7700938859629036,0.6482094270538563,0.17270563190619012,0.4739500421356495,0.27844628817900174,0.7808559880664658,0.09406409001516668,0.8278558105263382,0.43842199758556255,0.9208752086666246,0.5236068169332974,0.9123197648448306,0.5851398034591142,0.8985695006226497,0.5942680678738939,0.6148852270319669,0.0596988819428385,0.7775261822385802,0.577841381413996,0.9597739583586565,0.6920190909941485,0.7386168973193283,0.4688142213853814,0.747010361967402,0.6191074160985768,0.8091848215515921,0.4749547299378679,0.6814711225967864,0.24971851524297037,0.7846178035982778,0.13119604172685137,0.6243820354179115,0.0774480013274856,0.651750168036813,0.11004785114357933,0.5723464383083834,0.06299187527991562,0.7594663499364522,0.2028922216214794,0.8140888053904027,0.34043405903028484,0.6699312290186309,0.3167836853501957,0.9071241888437473,0.2738989866915046,0.8416459828980767,0.9656277756301037,0.8920206044972775,0.47163742516212864,0.5058017727016113,0.06618120439269273,0.9011083753025678,0.6958392468027995,0.8906716698272469,0.5033285835235665,0.7631873976577083,0.37211532928335533,0.7186355311355311,0.4324541926166621,0.17208150693478674,0.7975422461811472,0.37484296321581984,0.7854083356315499,0.30422631027870156,0.8329951083205013,0.39701259751045814,0.6807017516947058,0.3804682038057654,0.6243206926487985,0.2532066358079391,0.6491671302993213,0.4754096746672459,0.7369771254723516,0.29253048408522037,0.8092031227059955,0.952448381567478,0.7568129170907663,0.35527429224837537,0.8042954196800352,0.3178146091903042,0.7190798220310759,0.38866505993746314
28,2.420600784488256,0.8184871383863828,0.7477736991600971,0.2743839978808366,0.4765864370411815,0.2225351468893475,0.8371322189317496,0.22503992926106195,0.8752155594002999,0.5088357968625631,0.9691983485129543,0.7929850020446246,0.9474222905221176,0.7343712379238889,0.8259930705136351,0.45986059395781337,0.6329073815825673,0.0692389144268204,0.6590626581415184,0.43184121889050164,0.9638956601684484,0.7258168542398546,0.7799447678588911,0.5054678579486931,0.8025286516439759,0.7113662202476407,0.8673601595752304,0.48204227264689253,0.7298576739096514,0.2859557287809975,0.8242130264255587,0.13260500705220693,0.6411739250430732,0.1473171136395632,0.6859390091935057,0.14084125629345684,0.5730554309835494,0.048255307498259514,0.753525010591297,0.24578672110447852,0.8075534460794622,0.33701331797577805,0.6683939260985118,0.3527365976925828,0.9070643684397659,0.3136957518762443,0.8369682125056406,0.9648267982321361,0.8734506179187599,0.4196165527115465,0.5612821179452863,0.09263943064539876,0.9013433272248279,0.7195795547731545,0.9300982709523722,0.5685644159703377,0.7807014543097751,0.40419328138765487,0.660485347985348,0.4363679032403647,0.1572537238242418,0.8414154070671089,0.41652116483714713,0.8338066223110866,0.37084821788357303,0.7597244530876652,0.2967269270540699,0.5772075663884471,0.29883388732800376,0.6575429181809671,0.27883565578194236,0.7019422499165462,0.5388218776007564,0.8012432380301078,0.3218114754142793,0.806926012968651,0.9548657035438404,0.7521697946189843,0.3273109968054482,0.8177175724345536,0.3363631620896068,0.726005794385862,0.3907447992875372
29,2.336849277005488,0.8228379513014273,0.728107488182637,0.289234591751667,0.48693031150099275,0.2584990381836747,0.7955503961986014,0.17780905426144084,0.8584773609126736,0.5101840105627428,0.9467791566811256,0.6932718123127612,0.9015791659878264,0.6297262575837914,0.8389457298249142,0.48145192322917324,0.638124104694956,0.07644577752765701,0.6637661072432055,0.42976073141636434,0.9691146407710346,0.8337414129691397,0.7519182364924466,0.4780490482651668,0.7243836120964173,0.581544173011402,0.8334195284410927,0.41341810115758254,0.7244555707274214,0.28964952663074317,0.8369522221134834,0.16897322424325237,0.683989324787447,0.2258988726289461,0.6946999653061117,0.17106762548983553,0.5617032433804808,0.04627456218579323,0.6900630938691521,0.21533550563092044,0.8201815107239746,0.38700394845880365,0.6719713283339469,0.37034658365270057,0.8970608803204352,0.29328885300527424,0.8438721403978312,0.9664998735462341,0.8750067958945591,0.4773862592191944,0.591173493011668,0.10434103936628332,0.9212029379503219,0.7448267822202124,0.9100993003525465,0.5639431458608437,0.7725750980073074,0.402887842013763,0.6707875457875457,0.42610343893853236,0.15328926225565426,0.8395615992727572,0.43335805043611136,0.7921661696773303,0.3244217032496112,0.7701615847183136,0.31945637659613785,0.602139647758877,0.31113818884528177,0.6208565975266191,0.26609258999042473,0.6289323467230444,0.4268418172810563,0.7677102968983344,0.27391711424137427,0.8136730047830052,0.9559699303558652,0.7604708268459234,0.3446516273049722,0.8158785390280311,0.3445377139875582,0.712514004742797,0.37760676132218607
