epoch,train_loss,train_accuracy,train_1st degree av block_rocauc,train_1st degree av block_prauc,train_anterior myocardial infarction_rocauc,train_anterior myocardial infarction_prauc,train_complete right bundle branch block_rocauc,train_complete right bundle branch block_prauc,train_incomplete right bundle branch block_rocauc,train_incomplete right bundle branch block_prauc,train_left anterior fascicular block_rocauc,train_left anterior fascicular block_prauc,train_left atrial enlargement_rocauc,train_left atrial enlargement_prauc,train_left axis deviation_rocauc,train_left axis deviation_prauc,train_left bundle branch block_rocauc,train_left bundle branch block_prauc,train_left ventricular hypertrophy_rocauc,train_left ventricular hypertrophy_prauc,train_myocardial infarction_rocauc,train_myocardial infarction_prauc,train_nonspecific intraventricular conduction disorder_rocauc,train_nonspecific intraventricular conduction disorder_prauc,train_nonspecific st t abnormality_rocauc,train_nonspecific st t abnormality_prauc,train_normal ecg_rocauc,train_normal ecg_prauc,train_premature atrial contraction_rocauc,train_premature atrial contraction_prauc,train_qwave abnormal_rocauc,train_qwave abnormal_prauc,train_right axis deviation_rocauc,train_right axis deviation_prauc,train_s t changes_rocauc,train_s t changes_prauc,train_sinus arrhythmia_rocauc,train_sinus arrhythmia_prauc,train_sinus bradycardia_rocauc,train_sinus bradycardia_prauc,train_sinus tachycardia_rocauc,train_sinus tachycardia_prauc,train_st depression_rocauc,train_st depression_prauc,train_t wave abnormal_rocauc,train_t wave abnormal_prauc,train_mean_rocaucs,train_mean_praucs,valid_accuracy,valid_incomplete right bundle branch block_rocauc,valid_incomplete right bundle branch block_prauc,valid_left anterior fascicular block_rocauc,valid_left anterior fascicular block_prauc,valid_left axis deviation_rocauc,valid_left axis deviation_prauc,valid_left ventricular hypertrophy_rocauc,valid_left ventricular hypertrophy_prauc,valid_myocardial infarction_rocauc,valid_myocardial infarction_prauc,valid_normal ecg_rocauc,valid_normal ecg_prauc,valid_t wave abnormal_rocauc,valid_t wave abnormal_prauc,valid_mean_rocaucs,valid_mean_praucs
0,5.250783094003286,0.47767346004121825,0.33001682949716626,0.027782751417271174,0.49512539232914554,0.01766161387326546,0.8679024506905799,0.5530846924296866,0.7717887638108138,0.332254985285911,0.8933811811520025,0.3123678671978942,0.4234677587982919,0.01643326814874247,0.7342238686346584,0.4879030371808346,0.7950336330736499,0.06219119619443188,0.6094643046897666,0.14983031769216554,0.49102723130748677,0.2562739034911635,0.4074515668147861,0.033570690562233926,0.5040333315311603,0.019893507880836672,0.9039662565707749,0.7271560802307431,0.49754523592846917,0.019281763022658487,0.3960039563865526,0.01965738575848107,0.29557108224825457,0.010758610072080507,0.7591977906647466,0.11592138168697222,0.5727400229060833,0.04307701759617067,0.6158548135492498,0.047096867740218123,0.478041978275715,0.07785369489601135,0.586529693744799,0.06459849711849634,0.769246048166846,0.3017281837393763,0.5998915086714091,0.16801715060071118,0.5196886446886447,0.7858088998311188,0.33687630516196587,0.8980089776846476,0.3437117076426345,0.7409087419690099,0.47554461915288054,0.5972166315867787,0.13563802543755052,0.5099826184471866,0.26957232432808453,0.8954235650097151,0.6964985096364334,0.7505469683601559,0.2627529948169676,0.7396994861269447,0.3600849265966453
1,4.810076729631289,0.20555682772307457,0.33809902592420915,0.027162301462129324,0.36977623031797235,0.012061715602551348,0.8472554315891803,0.4375927068689799,0.724330060097463,0.1481031610040247,0.47939336264157095,0.06348247207294715,0.3007000960195996,0.012969925757222047,0.5375512297664314,0.264147021212504,0.5953288284748959,0.034823935163723195,0.48161533024415343,0.10774227495812412,0.42764973040835497,0.2621482532898609,0.38684135058956065,0.0284626076198219,0.5368950430434185,0.022361481215368913,0.9129742923915867,0.7810903896976141,0.4808995509888632,0.017113698706850956,0.381779530285781,0.01826879492180053,0.35164532138175525,0.011554534832933082,0.7123529245978115,0.09904866099782166,0.578634081401755,0.0460899523093479,0.7221248287360307,0.15341485444943936,0.6701961380394226,0.11001314993178435,0.5383994301259688,0.05305702829840133,0.7119524696827336,0.26125033071745773,0.5493815584885691,0.1350890568677595,0.22344322344322345,0.7231245040389037,0.1760976957507886,0.49587064578267737,0.06978824052394615,0.5580035312736206,0.27351784729524914,0.48646292016054393,0.10255179629582245,0.4344485265531993,0.26616062045176025,0.905771079582254,0.7593719239694491,0.6925269994080792,0.2603208618619828,0.6137440295427539,0.2725441408784283
2,4.613600437736322,0.5006488054346997,0.38636552311148653,0.034595467231411735,0.6268924326009856,0.02381888794615207,0.9284737538088332,0.7479180047843723,0.8690128672030764,0.5257177433968804,0.8582313342384188,0.38440566876166204,0.4284652502048043,0.018806328360201116,0.7801699040074799,0.59970729894414,0.9265263667414722,0.28974061767080256,0.6801560688534495,0.28563020776382,0.8037939357471398,0.6674118941060903,0.46392644148276985,0.04097110887833317,0.6837775005320973,0.05484081776895853,0.8696535403229769,0.6182839583909711,0.5690234579410557,0.034367373552272526,0.4989152555342078,0.026322339534265042,0.3409963079362298,0.0126224685976001,0.7930600272979461,0.13988013598642152,0.6385939696868054,0.0687320711090185,0.8414308176100628,0.3732164576516904,0.8343874585862295,0.24546863778147235,0.6505841339047701,0.08932689918358584,0.8645333015271821,0.4681709073398592,0.6971349840399763,0.2613616043063628,0.5341117216117216,0.8824556941420636,0.5641634562359857,0.8545987753975418,0.37956610150720593,0.7815792115457294,0.590646223671257,0.6815771458647836,0.29060459321479715,0.8042886480373505,0.6714040211245393,0.8622940616904144,0.5983594631638431,0.8383729436335006,0.41060175191253895,0.8150237829016264,0.5007636586900239
3,4.472795273837092,0.5836195710251126,0.6082407199536138,0.058811209773115505,0.7194112585714993,0.03448369667375554,0.9345535471614582,0.733501452453067,0.9041285631070719,0.40423639984339,0.9346377862524167,0.5581795402920088,0.5071680023125263,0.024558610676859813,0.696997734380584,0.5370441419524659,0.9854839326388926,0.8127952867854258,0.6668997381639478,0.30607140800722676,0.8774096455707374,0.7422779665665938,0.5975520797038082,0.05712022381817515,0.7330712654470747,0.047109721763612694,0.9029731694821282,0.7018111849238128,0.7015362935969692,0.05457870166874833,0.6996859317741593,0.061700167945624836,0.363700941350075,0.013139651012759277,0.8245347001990309,0.14219418167845083,0.6485735836202386,0.09423264553276117,0.8767920814143515,0.19657050062192047,0.9392273529570156,0.5583074596363309,0.8003077267678012,0.14229588955442704,0.8702496458320149,0.4537193385366506,0.7633243500117007,0.30612451725987194,0.5629578754578755,0.9011292652654282,0.41440020737445143,0.9286086638830133,0.5595460404948197,0.6830368953136811,0.5145920581192223,0.6642224562732112,0.2989241520784848,0.8677664300542293,0.7259337396898771,0.8950885990123058,0.6886563139852931,0.8497501088910977,0.4110838729341388,0.827086059813281,0.5161623406680411
4,4.369993562871614,0.4021067094114953,0.5263632781017877,0.053859106902444505,0.4362978772698263,0.01715776634421305,0.923405721008573,0.7684476292426083,0.8432847951997802,0.5067585760972001,0.8574576385557521,0.34969469637933986,0.4359836263184925,0.019345322978484132,0.5796925231715777,0.34253340786179237,0.9847845479041777,0.7581139672965695,0.6391050591787684,0.2754166024572015,0.538121525647381,0.308871256944388,0.4378804879623139,0.032616917411838926,0.5962688860312662,0.030411718460941383,0.9184347484331904,0.7827869155634645,0.5525306445364433,0.035547361738972265,0.4045549948031347,0.01872396329350663,0.44887374982742156,0.027873801512622344,0.7700099381166028,0.1446812149524351,0.6442494086650341,0.0912165038600311,0.8390296142227505,0.3775926812506766,0.8500989596726987,0.24094220614840142,0.5728605957371443,0.06518486694095281,0.7812413892147938,0.37257683899762395,0.6627513640717686,0.2554706055743503,0.40453296703296704,0.8594105438785684,0.5116694317459181,0.8380059465629349,0.3222658120002295,0.5669338742441421,0.33469255004813314,0.6425510249971268,0.25529189910207983,0.5270542740867717,0.30297369016237463,0.9081694766029793,0.7485135832642118,0.7480860295513687,0.32601816269764733,0.7271730242748417,0.400203589860085
5,4.296629691613502,0.46049919853446303,0.5369052945081249,0.1118554937434173,0.5712519998950876,0.028902452479128902,0.9317751407704477,0.7102317925387734,0.832958829212387,0.30240641389718964,0.8715925063441333,0.3977721216186132,0.5583298335443079,0.03056089984527632,0.6885717957331288,0.45234219345883286,0.9704155425179278,0.7429174944414071,0.7411195431420565,0.3531499747963956,0.7645170349430115,0.5678588361666388,0.4548095830059067,0.0417401802752478,0.6850918321186916,0.055425430827693745,0.9210358839753802,0.7850596198426404,0.6406921160752259,0.07758355676015444,0.49928362229604817,0.026064865923015858,0.36903305636669453,0.014526572929152354,0.8023079782743779,0.16630892258341695,0.6296499957420406,0.09789384099149243,0.8322624176694894,0.2060047529022685,0.8758292712227949,0.48925814967011877,0.6578709943754891,0.09374078129166154,0.8552438160565891,0.4567945746164683,0.7132067312631519,0.2821999509817729,0.4407051282051282,0.8351659307790913,0.32268157670672154,0.8590217237710961,0.38152677847377525,0.6761662651171579,0.43159818742177325,0.7357948662143202,0.3560720194791633,0.7430723908093193,0.535684126755747,0.9120767385848446,0.7419309688380469,0.819946894649259,0.3982520859572785,0.7973206871321555,0.4525351062332151
6,4.194128310950637,0.5654530188535226,0.466514792029731,0.10829968081826796,0.5539326898698209,0.022652817164143628,0.9074320681532853,0.665816231976832,0.8239113550580849,0.406549872526098,0.8721981041158898,0.42179734131880187,0.42747543681217304,0.018206392180013783,0.6506886202159325,0.44628047248353264,0.9372963454258892,0.5879712332272707,0.6848916239924446,0.3231937556163872,0.744512738337724,0.5428122201181252,0.4377748336586994,0.03537455094862499,0.6298628728872658,0.03308190279642343,0.9312520440461234,0.8014418518525439,0.6016749232539164,0.06518594751944906,0.4631441942504374,0.023404260785649677,0.40190756628122926,0.0153888829696241,0.7826072222796334,0.17820155172360996,0.6815102025919676,0.15880608559561524,0.7914326746892488,0.3368057897896211,0.6723311559337406,0.22751104436357128,0.5851823635968219,0.0659654831818019,0.833949526802362,0.44000141196381926,0.6764310615582919,0.26930676276908305,0.5414377289377289,0.8177172563940831,0.4360952050755902,0.870455056299059,0.3952098625953432,0.6354197668650794,0.44042948429949347,0.6791714298880646,0.2838886584452404,0.7259734240878725,0.5088493957988982,0.9200496377104922,0.7600068008494748,0.8090354482404316,0.3747962371160521,0.7796888599264403,0.4570393777400132
7,4.141132101904535,0.47484924814899626,0.5753190255688838,0.13454431543977,0.4452462238775088,0.01820052827997681,0.87596579578507,0.6630875730862644,0.7768329963013303,0.42089325491339186,0.7783578092911647,0.20305655943396064,0.46472020149307214,0.020183298232498224,0.5384595164481333,0.29544127033612844,0.9629309283518259,0.5692326821117343,0.683550594772592,0.30346297300671343,0.5559910620503262,0.3484878415289103,0.4124410832745383,0.03130750263086394,0.5762120696770255,0.027521779292074524,0.9374673338620365,0.8383168845666589,0.5778596286528294,0.08514575747098699,0.40600025800388373,0.019595218692146192,0.3757313240509674,0.013697725651708043,0.7683234444264009,0.16889304539517389,0.6552248637018524,0.16384794185929694,0.757462982221562,0.26262059322187725,0.8101113491496734,0.41177174380409803,0.5979065984797282,0.07068775321386235,0.7808844828173759,0.3842807976044871,0.6505908896480809,0.24792168362602646,0.5029761904761905,0.7612336460007731,0.4388914345579942,0.7759594708276499,0.2201332949947789,0.5250642183956916,0.28422712991376453,0.6895366068022966,0.2569693699937998,0.5413078719734514,0.3291919846339575,0.9235541309099742,0.7948709500363229,0.7411181161281677,0.30780794991243393,0.7082534372911435,0.3760131591490074
8,4.083424942646852,0.5081291504465308,0.6347045389573787,0.20195272722802704,0.5971861585403171,0.026561684543937744,0.9356567427820688,0.7961421672050591,0.8814861098613829,0.5137935676613676,0.7617025860703264,0.40078427139140116,0.44181751300351796,0.02216555884125975,0.5675098588501915,0.4167410071052912,0.9581230522166653,0.6999616159603275,0.672036315573932,0.3103905157984997,0.8519743523724139,0.7321862067835923,0.5009545015316662,0.042736945081404756,0.6435050941042255,0.03214089456989074,0.9360048285106711,0.8071790950987938,0.7345392327808835,0.1443957988183577,0.4617457739601487,0.023574509475646988,0.3718228878262845,0.014500887178490508,0.8271749108522086,0.17536546493398314,0.7685421094799555,0.23334711410586445,0.8904442958781096,0.46703019052210387,0.9049722654802341,0.5307724319338654,0.6645864832026503,0.09157797469439687,0.8770516793161028,0.4865385715629776,0.7219791495977881,0.3259017818406609,0.5226648351648352,0.8676053472236354,0.4664735097522386,0.7611801899356508,0.36998935457560256,0.5538117677626606,0.40334857540588975,0.6487338205468021,0.24081446494576403,0.8263996163071682,0.684628421020183,0.9201491914264895,0.7549731564395988,0.8367652642982388,0.417674672051582,0.7735207425000922,0.47684316488440837
9,4.025055633957227,0.4477520799938936,0.5885931703251711,0.16161972843137618,0.5471581818658693,0.026891576172149472,0.918708331939213,0.6281254546533157,0.856084216957051,0.33016815622976126,0.8370206833218613,0.47867081809895173,0.48711687676260534,0.019776417749633377,0.6984880489835991,0.469481470907547,0.9473177786582823,0.6487595997493009,0.7070761103555978,0.2927584420802697,0.7385971719315079,0.5522242832934765,0.4709120696072389,0.0358174935916325,0.5286352166953304,0.019784877595580876,0.9408265175068602,0.8542386825286866,0.6277195944069923,0.10565571266778485,0.41993958000303133,0.02189521871101427,0.4635299217496255,0.027745456872442335,0.7757477577166356,0.15703837190961026,0.7101311625271771,0.23179898386765552,0.767915655590221,0.20869167496933447,0.7978773779558447,0.4260824647385687,0.5777775173234674,0.05375217360434045,0.7815988737214657,0.33028955044688707,0.6903987189047566,0.27642120949405996,0.4320054945054945,0.8464199239017641,0.34422589655074715,0.815229336572387,0.4403101103194743,0.6719467474489796,0.4480070698998471,0.6879786933403363,0.23597194008990638,0.7156751954344789,0.5030671623487897,0.9277907929889895,0.8166613681988432,0.7349610225711702,0.28726337585352535,0.7714288160368723,0.4393581318944476
10,3.9935029799424457,0.5143882146401038,0.6292795295493345,0.20771221304751702,0.6047649959346395,0.0324289845270697,0.9429315376733085,0.7895643057550025,0.8794316551191766,0.5746190895202192,0.9053667420295644,0.589230914250755,0.444593551581954,0.022301561489739274,0.6005651349749004,0.4028955462488909,0.9796293954198178,0.7858408884522989,0.7496299013667292,0.39289570763567866,0.7488267993544493,0.5972811812470551,0.517011788001589,0.04376217224229514,0.6707452236143058,0.04014623437788279,0.9514450020001826,0.8670780462944998,0.6817740545646852,0.13864678715086437,0.4582234813945355,0.02771387634636783,0.386116088461076,0.01633250309097944,0.813964043612294,0.21032706013199004,0.7330996379865586,0.2683848032266079,0.8413948109080706,0.40518135046654324,0.8838212486540625,0.4178394527041755,0.7157760431520702,0.12759190891283873,0.8481606997677826,0.47258046466360154,0.7266614256873222,0.33774341144467607,0.5471611721611722,0.8752517956335079,0.544782083872729,0.8978625466840333,0.5610006352976644,0.5832288123582767,0.3894266520209689,0.7314137204094993,0.3196345417032966,0.735056309598424,0.5496521031948752,0.9352637730731864,0.8238435932546185,0.8016291783468656,0.3860330341134012,0.7942437337291132,0.5106246633510791
11,3.94010774006999,0.5474391267842149,0.6182153464986733,0.21263614029102634,0.5149886490471902,0.02564138133722576,0.9380632692763173,0.7597355082727371,0.8567651676240902,0.5685782699698314,0.9060129299234662,0.5267025623217905,0.4537633937271539,0.020635243445737722,0.6471373370693413,0.4501365001656322,0.9744019724792422,0.8514590788563313,0.7156483158557072,0.37515329630416955,0.7074158932736065,0.5415315168604251,0.48209159553734204,0.04501316592546517,0.5247536440963894,0.026441200596803216,0.9479468021644081,0.8605087038061834,0.7310271072589807,0.20274220980896204,0.37884314197718283,0.020374381719330953,0.5071243321402539,0.038569384158434944,0.7719910187878047,0.19791616492782294,0.7678204288199544,0.2878780392810292,0.8190014278875517,0.39332247885927657,0.7558830099418541,0.38339415621182354,0.5859908137764702,0.07264598456703658,0.774242129194639,0.41972312333725714,0.6990512602889827,0.33094265868292416,0.5764652014652014,0.8409139927157303,0.5290758357535683,0.8916297111428867,0.4847549233901198,0.6232621173469388,0.41983852798323673,0.6935887919064009,0.3082313461849712,0.6903698059826319,0.5078628240227344,0.9308210461868525,0.8087643962994698,0.732067869866762,0.33461638885558503,0.7718076193068862,0.4847348917842408
12,3.8926267466120352,0.5888863445538508,0.6435539149577405,0.20368274003915482,0.5398394401168026,0.03077659279230342,0.9304493116781248,0.743830418504028,0.8345771156059236,0.5250010749316555,0.7934050984961275,0.38530151386568323,0.3937746898021972,0.02467473704743837,0.6042487052726284,0.4071675643738889,0.9817008683799527,0.7397160371501144,0.6645731224635751,0.33769004967201754,0.7014550159230761,0.5127612807256424,0.48170261749705917,0.04562204058617249,0.5284389737469023,0.020914635744772536,0.9547457382076959,0.8839301301376069,0.6757428152011795,0.16030904772400212,0.37432709300745715,0.018460824118738863,0.38938468572921603,0.02030162551090573,0.7895080397417298,0.19371876686529924,0.7583804460603449,0.33094592491813357,0.8084937643407781,0.3463438092440535,0.7461698734954098,0.28256460533626676,0.5959495447909788,0.07672449650665172,0.7985141375096757,0.4171688029587086,0.6813152278192989,0.3048912144887836,0.5872252747252747,0.8130893035180173,0.49930855819633896,0.7725681288534234,0.34527506604463937,0.5928527140022676,0.4006460807601249,0.6524315053852393,0.27527518331707346,0.6788464802285881,0.45898108516457004,0.9340800072862695,0.8267864582003597,0.7524025843487195,0.331326237599927,0.7423243890889321,0.4482283813261477
13,3.8299995485985248,0.5426303335623235,0.5896940326350115,0.1805462220984572,0.5218622411064775,0.031227657326984085,0.9656635565282989,0.8128007791765042,0.8980026709983566,0.5155052504416552,0.7953293186220117,0.3530995896564324,0.3916653388200548,0.01745681101422877,0.5133148277804827,0.3304883481722495,0.9352885292920141,0.6416000960721404,0.6343367596087146,0.22681365639886863,0.7082788040794825,0.5459064269254486,0.4786550207149874,0.04436252726664813,0.5887298718381275,0.02887030722916245,0.9536096626358895,0.8785172359700992,0.6975528141755031,0.18560915067199207,0.4261893071614717,0.023203734364789265,0.44964088852995887,0.06334464139997847,0.80923161112908,0.21505710736184946,0.7081808433540207,0.2537782805129407,0.8045626372175175,0.24706273525499461,0.7941911261645807,0.45803216383628653,0.6338251361850477,0.08635180660628011,0.8328071524893993,0.4579842183899774,0.6877550977757495,0.29989176118854394,0.4874084249084249,0.8848861578529718,0.4657733671210063,0.7602862286769007,0.3130283833612506,0.5099940062830688,0.32443176853020705,0.6231295738723588,0.17513680860859585,0.6855708587412321,0.4956768616199815,0.9318210107674869,0.820122970749336,0.7827279174437956,0.3832620469749591,0.7397736790911164,0.42534745813790525
14,3.814817381563937,0.5646897183421112,0.721327188359544,0.22896354038422456,0.6422318829176175,0.033222949529490106,0.9449884764618361,0.7877653004825196,0.9114268056469831,0.6732989296544489,0.7781165806538572,0.4628102755375849,0.5479492322282293,0.03108580532455982,0.7939704847784472,0.6378759117229063,0.978662147802327,0.7794848421891482,0.7400796910501739,0.3996057376306662,0.7707312745782215,0.5875709372713928,0.5440977459665908,0.06882273304827362,0.6624303055230669,0.05326288026346569,0.93944668636437,0.8385789802993958,0.7513546116573039,0.24264905033198825,0.3701166265845044,0.01832806769850732,0.4470306870326466,0.014831929255368423,0.8446727232586823,0.2428171272501819,0.7702510284275269,0.30181380089666465,0.8638028442199442,0.44183431684910696,0.7856087525536567,0.41300982515856893,0.7185173898831732,0.15033725845222623,0.8409828344149046,0.47722575705474146,0.7439907272892547,0.35841799801297414,0.5613553113553114,0.9088764319287037,0.6062891096064916,0.757099890103534,0.43031243305912703,0.7623748110355254,0.5765801399679081,0.7300978776066318,0.33797690191094487,0.7530136246069503,0.5264773025151268,0.9170918677137305,0.7783892326585393,0.7740526474497146,0.3602455662350371,0.8003724500635414,0.5166100979933107
15,3.752944854550412,0.5802610487749027,0.6394424784907073,0.2333785819492273,0.62731517909443,0.03808173838021419,0.9526999675465255,0.7650585614611324,0.9276672689041804,0.6380132556503125,0.8944795978118327,0.6826868413284366,0.4570256018699239,0.02478348312461839,0.5859513307363606,0.399432820063251,0.9704951660728864,0.7335271203311323,0.7007575992750257,0.3485629484281336,0.7983599656715288,0.6708613735052603,0.6329678679250555,0.07835229626129878,0.6785123039366986,0.036666387331088304,0.9514630387333582,0.8688949144033761,0.7218979327718027,0.24188461401064795,0.542813929659116,0.03454543728985766,0.5023229420121821,0.04313271596266688,0.8288010108561007,0.22423566080606422,0.7585041875726677,0.3198394584713361,0.8565373314184784,0.48521913568771435,0.7570279531201056,0.28578168555954564,0.6769531794308813,0.10333887119732224,0.8767291247791016,0.5085363538417728,0.7426693162585886,0.3529461025020187,0.5386904761904762,0.9159053451889232,0.5697256883216505,0.8790388415550678,0.6059381296571977,0.5737720261715797,0.38489976418205135,0.6764026079227061,0.25197000110835244,0.7668586710037407,0.5996556616598969,0.9297079926327719,0.8117304264352496,0.8190807916103597,0.40375964409158666,0.7943951822978785,0.5182399022079979
16,3.7169739987302233,0.4840088542859324,0.788397579911847,0.2974011977873765,0.5103865225285085,0.019085965926987282,0.9025951983691841,0.6889004559745834,0.8564223539830552,0.5373171842579021,0.8231571870463048,0.48660032872679543,0.501585863498158,0.021448121083640026,0.6913303576587021,0.48003335192369695,0.9809395075272621,0.8317328464108862,0.6930893728948941,0.29043990983130874,0.6406784803180721,0.3627623516437175,0.5327257782691899,0.051959664944315684,0.5238468545352138,0.02315482726327589,0.9462284559293128,0.8624651814908317,0.7569499384920726,0.1472079883017046,0.3599571105330821,0.017223405320758802,0.5500477281263407,0.03782217977718448,0.7679716512036462,0.1903451046726196,0.7785054736501835,0.29009626741677796,0.8769429175126694,0.4897114147344978,0.7953338387271214,0.291401100059897,0.5736814174965392,0.06467096792592505,0.7833045698623735,0.4408335138286784,0.7106399162760788,0.3146642422410619,0.483974358974359,0.842534640975034,0.4957802093129442,0.7939038577979267,0.39300995050274584,0.6446142172146636,0.4327801012997413,0.6602671549535374,0.21736742164153988,0.6187225269327676,0.32745814970534476,0.9197298514410622,0.7963389372131491,0.7245552217469482,0.33219993970826267,0.7434753530088486,0.4278478156262468
17,3.68925734528439,0.5907182657812381,0.68069784269104,0.2461131371491379,0.5229416016063274,0.02963468748621223,0.9506018644347993,0.7407963447642366,0.8691420364941724,0.48138968036097024,0.8981197781963907,0.6121744433023736,0.48267426728041807,0.02356716183151624,0.5023037481014823,0.2594460659386611,0.9559673337537906,0.5923587264370754,0.6966119513292987,0.3823168983783815,0.6323491085468428,0.44845235411095596,0.5180677690467573,0.07118650671122355,0.6323057297465986,0.039381866165644534,0.9388968818207978,0.8508697101043421,0.773904632987456,0.24865078361462642,0.4620883893837779,0.023370429686265872,0.3285075719225008,0.014089946323720301,0.7718557201544468,0.19188807945540418,0.7538338144537733,0.31124852911899153,0.8324747437230723,0.3946717902383247,0.7390390730580818,0.28047225912884677,0.6727197550687665,0.15392464429665242,0.8129372940105446,0.4917565255721864,0.701274586718688,0.3130800259170795,0.5315934065934066,0.8422589374732945,0.45234481000254556,0.8648687136256242,0.512580987406806,0.4978195271164021,0.2577956202175584,0.6826370378102156,0.269069060400483,0.6101408555112788,0.40252886463713605,0.9148389430861398,0.7780236989471122,0.759309072024481,0.34866961119103046,0.7388390123782049,0.4315732361146674
18,3.625826933003411,0.504312647889474,0.7790408963241601,0.34008920269024856,0.6236864077075739,0.04189168784638605,0.9523816960426376,0.7486284184567267,0.9253290205865778,0.6579171369836625,0.9218366550725065,0.7228171058178935,0.49425466933065276,0.03191520181589459,0.6819730127749192,0.5177057549173583,0.9918832294305466,0.8819447853743726,0.8094450221897995,0.5105814047596974,0.7511717062009406,0.6680425851114263,0.6019709344689619,0.09163370937756461,0.637544064839902,0.04197381784197969,0.9665530329082653,0.9103941155554472,0.8389246859437236,0.3816714761556243,0.49475016051667486,0.031274866773554066,0.5885044989140552,0.04238122789378613,0.8560608754937185,0.28613799416949987,0.8514545710497,0.4518695600467824,0.8974547698047178,0.5757939429915663,0.9061500305753681,0.5779032767106527,0.7131608865343819,0.13981470132289822,0.88918190238108,0.5881443755379581,0.7805778513223118,0.4200239249159536,0.5938644688644689,0.8996917411032209,0.5720314093501395,0.8949236765017049,0.6145242297885675,0.6629924886621316,0.48044258533574513,0.7785419906536296,0.37759629950832213,0.7227880601523792,0.6106981177189332,0.9314181154873704,0.818959189408806,0.8162931795083708,0.43317864185638594,0.8152356074384011,0.5582043532809857
19,3.590275273178563,0.5405694221815128,0.6780916933026031,0.2344004556476512,0.506942805186176,0.028002432640848007,0.9107733420667077,0.7214569657435423,0.8504098253905862,0.5539709399914283,0.6599865230518497,0.3944019065827594,0.423168623093158,0.017223649724298934,0.707926288074239,0.4974439460046445,0.9419834206531317,0.6890668533323613,0.6879067980662579,0.32883638963334066,0.7030853317395878,0.5327411174423345,0.5307180253628134,0.06813538795080314,0.5919094524428226,0.04057337516639794,0.9582692315790213,0.8857566054771946,0.791514584532406,0.2272706885719042,0.42023461676367974,0.020091548372402433,0.4619730050311235,0.02314345710947889,0.7940224677933893,0.23973503952252243,0.8182087720914227,0.4268225945023432,0.8870937123425611,0.5011218698548602,0.8345907632752704,0.44946718712235045,0.637114869466811,0.09472812368659632,0.840499048249607,0.518658616171814,0.7107465090706921,0.3405931431932671,0.5006868131868132,0.8246352778399496,0.4800633192309113,0.6262872200147749,0.31243442655408377,0.6778462773998488,0.44847420786683867,0.6603582090546641,0.22400642710285007,0.676254435612313,0.47259884447367073,0.9268851957172928,0.8038589222347792,0.767835524184992,0.3585791382274618,0.7371574485462622,0.4428593265272279
20,3.561455299213509,0.6568200900694603,0.753532902313006,0.267535998233782,0.6519009567439813,0.045809521640092096,0.959059216794978,0.80661681716252,0.9083261506840882,0.5595203849162401,0.8674852826553955,0.6165694891311524,0.4840905711833394,0.032022706372482536,0.6871338111353081,0.5480615491476029,0.9686709673190474,0.8468476977124315,0.7556144013410591,0.44728209239340927,0.8318113210988957,0.7368037199945203,0.6291081138972662,0.10843099999260228,0.6197355733202665,0.032182341239818585,0.9592400429512867,0.8880103332845066,0.8271966953616554,0.2657179129526837,0.46702504354428664,0.02680459542363067,0.44728009061663554,0.039777524330769275,0.8298122695813106,0.25182750130802767,0.847466687985429,0.4838220988309855,0.865190907740306,0.4509036648082412,0.8059309363136908,0.41023202991476126,0.6774732415752798,0.1045125610432642,0.8761107608648027,0.5581321926032161,0.7599634520464235,0.3876101696562154,0.5510531135531136,0.8932940972999369,0.4740104486052039,0.836072691277325,0.514092313572597,0.6558918532690854,0.5040932378792928,0.7091568223673289,0.3345460289886997,0.7816445563022132,0.6454931075879716,0.9212421318409975,0.7881770135389364,0.8193387797496063,0.3966155706090376,0.8023772760152132,0.5224325315402484
21,3.519795714803401,0.6572780703763071,0.7192944047574824,0.2861080357607744,0.5845460201723479,0.05224444626723151,0.9405635383484198,0.7909032853454648,0.8801186439473947,0.6294974950987007,0.9106431153757951,0.6001848726560126,0.4541541952746036,0.021112226155451032,0.690797412341829,0.43681889658507744,0.9725305038049135,0.7833398516615029,0.7082922212126603,0.38637782380894764,0.7607262452328758,0.569150156352419,0.617615478708731,0.096186180999353,0.6356697479261895,0.03479854015031094,0.96699377487069,0.9141503323496332,0.788228499827203,0.2623779101645968,0.4661085411548077,0.022803000440901958,0.5551315529678285,0.0554903211239299,0.8289872247222226,0.28165120601514104,0.8172947880839704,0.4436176301493491,0.847587241453309,0.4683399136142038,0.8100750219795312,0.4660594850929043,0.7158072325557471,0.18215142068237886,0.8381226845203033,0.5312829364713698,0.7504221858744934,0.3779384530429843,0.5780677655677655,0.845806458176491,0.5530769304017502,0.8909444140600118,0.5251240175856852,0.6627914186507936,0.3945725493455351,0.6769200617169139,0.25467426453178116,0.7304613594174603,0.4932624838672618,0.9305702011819948,0.8082134792375022,0.7643873060900837,0.36656404156193206,0.7859830313276783,0.4850696809330639
22,3.4537336302116604,0.6607892527287993,0.7033081590758958,0.3390807163905881,0.6218606382761706,0.04581893924065889,0.9560980226785342,0.7788159690763763,0.9539276462537353,0.7150755720479546,0.9596305117147031,0.7654976109027483,0.4382022654938968,0.01970423856898653,0.7254174670997913,0.5094730127960192,0.9778967952674615,0.8152522849357412,0.7254419453475446,0.4212532482327404,0.7678335618857832,0.6786171810337011,0.6570916517364396,0.1272918949736413,0.6398207910079325,0.045091535304156646,0.9628089159010998,0.8953122660716097,0.8154670715366922,0.31927194391002656,0.5083539793665564,0.03605616001834508,0.5721106669022145,0.044443060307618965,0.8449482694524709,0.248876155085814,0.8183471123214916,0.46442277232007934,0.889619133693194,0.5683262350276946,0.8190892587249735,0.41820619475197013,0.6597588974448131,0.12758132131972238,0.8830501409369509,0.5684587150490922,0.7681855864599249,0.4069057739711493,0.5695970695970696,0.9146957087919914,0.6340906474258557,0.9367531561371794,0.6760934774444498,0.7005642361111111,0.46366708466598994,0.6751239640513969,0.25550965332986525,0.7229912211592886,0.585375195765109,0.9252299728788861,0.7866052705928573,0.8135145020605546,0.3741822361231083,0.8126961087414868,0.5393605093353193
23,3.4260725033992063,0.5576673536371269,0.8271958698282001,0.32049711902835243,0.6950367630987665,0.045154227229529845,0.9383207214198042,0.7629507546356865,0.9380964164105382,0.6630778506334496,0.9346178765406048,0.7165436585173929,0.4423566977076727,0.025594945838255834,0.7271092821118175,0.6050138128026934,0.9877518383797301,0.865162095636861,0.7398320333067876,0.3687480891018002,0.822483953054349,0.7333505600208888,0.7189451814733092,0.16917836043194842,0.6764833195204759,0.04200088881265869,0.9437430362068117,0.8528657730329268,0.8281893803933764,0.2857617680450602,0.5162022515008124,0.03546979611600471,0.5849642298847845,0.0905590737305815,0.8479669472065237,0.27912981100465717,0.8498337657913809,0.5007674286115579,0.8283854553558164,0.20477450816536716,0.8978495908572798,0.6604927340209623,0.7136756744789936,0.14493787944281616,0.8847739105987509,0.5220644094819481,0.788355190687572,0.40427707019733633,0.45787545787545786,0.8972765377337376,0.5341166122467099,0.8906273909436818,0.6179590944435335,0.685406923185941,0.5467134257400955,0.6940193556589846,0.2286176160688154,0.7602374057593497,0.6231732241805487,0.9011746579501295,0.7326469587328621,0.8008568891767834,0.36344026552712216,0.8042284514869439,0.5209524567056696
24,3.3517758401693545,0.5653766888023815,0.7636158223115201,0.3372212028725523,0.5418812273600219,0.037106383240031744,0.9454119456805644,0.7498853153526095,0.9038806433127956,0.640628516301764,0.8277173245663236,0.49250078546269505,0.3975435035129194,0.021430477955892032,0.6096132820694234,0.42693265453388907,0.9732653935021296,0.8583858504437487,0.6776046896472676,0.28215551356901936,0.6533780241088119,0.5035559976317532,0.5847035208574121,0.09259476110114964,0.5885863253396697,0.027588877673993616,0.977044235614477,0.9341611105328191,0.8318942285769162,0.2740848148289464,0.4484893529252785,0.021989548689121365,0.5206381465750801,0.07264379825695312,0.7968965362207778,0.2867185515220681,0.8069178804747363,0.4370965420223514,0.8869682563264497,0.5349348243432471,0.8192947940297252,0.4462440090297011,0.6262763237915897,0.09680071002983093,0.8536287005077626,0.579099068696783,0.7288750071505298,0.37062542336776916,0.5343406593406593,0.8720756099049789,0.5451839853742247,0.7731033341606685,0.3835634263622519,0.5704763676303855,0.3720963363131605,0.6343145153006978,0.18287550611415224,0.6236978814682326,0.4169807450207562,0.9283774894753885,0.8035807675121308,0.7800302102994225,0.385979482170309,0.7402964868913963,0.4414657498381408
25,3.3323869805564934,0.5268300129761087,0.7595624492248255,0.3621030386745643,0.5910735465971912,0.06360662631317089,0.9802377872169571,0.8607415430997443,0.9533631373811903,0.7124932822179484,0.8862327810964437,0.6066506098097589,0.40234300262350897,0.022683821210683512,0.6588589512646897,0.5035096478613318,0.9831992198152146,0.8838684907138077,0.7336553948614226,0.40762758052701586,0.7428470796765148,0.6304926250309282,0.5730619580600586,0.09316985469218553,0.5238552380613455,0.022271295495205828,0.9624163046453362,0.8792930411273824,0.8235107927957003,0.2514491186485802,0.42979228725347995,0.02404520728209871,0.5061660582505824,0.029995362801473285,0.7707944688777912,0.2284215793978709,0.8456580980303896,0.5181715422921089,0.8806517109889566,0.4850620531207009,0.8346372875458034,0.45942442792926136,0.5570835758814099,0.08296419965414657,0.7880374590455234,0.4748100626327309,0.7357744813270153,0.3910388641151226,0.530448717948718,0.9179451441593587,0.5901423919825197,0.854753992258193,0.482204243652985,0.6192182775888133,0.4472289321690446,0.6692332078748473,0.24084130410958132,0.6758249827842644,0.5219463462875437,0.9114164204177462,0.7511643728775518,0.7201451322887233,0.3285109435693988,0.7669338796245638,0.4802912192355178
26,3.2849652932332805,0.6227005572093733,0.8161554289664396,0.4314472058218052,0.7085482583063037,0.05805369404458217,0.9448311537531561,0.7388628227903775,0.9269216743939345,0.6940050247419023,0.8137899459466311,0.5806272831281057,0.6191690010111379,0.06125959819504101,0.7160014266590857,0.5794643456087806,0.9815657814516193,0.84371273639922,0.8364388505958472,0.5890422182303732,0.8855143114178526,0.8230341182250385,0.7718913147987638,0.2589330206707059,0.7065663198510264,0.06312406717161788,0.9661061991620289,0.8811269013923094,0.8735523751598128,0.36876318473390807,0.5121028837084282,0.04022999656652333,0.5054720333963275,0.020965787197665703,0.8742763662058406,0.39833898891615266,0.8873467351879499,0.6015929180655869,0.9284795473678998,0.6107312395258049,0.8957948751285393,0.566922635953998,0.7745732781691104,0.21207025149032185,0.8916517676755382,0.6485453425418384,0.8107613421960579,0.4577660627914391,0.565018315018315,0.8848698801554521,0.5432427064044213,0.752596404679642,0.4598890501901318,0.6656134849773242,0.4880895348187739,0.7610362845040911,0.3594679508809733,0.8161125350341263,0.6926042761617291,0.9128185212920984,0.7499359792295589,0.798317772143982,0.4134947358370171,0.7987664118266736,0.5295320333603722
27,3.2325617910459674,0.5936951377757423,0.7875914760696502,0.30876239915466497,0.5439142718924763,0.045376242929543266,0.9525915558004445,0.7548325014855952,0.9123009182740804,0.6386024896743415,0.8715635195163988,0.4402403194442319,0.44044148875990186,0.026182739724790446,0.5953626697162722,0.39793997537021664,0.9361425391888648,0.6425752368891874,0.7014843047614043,0.3745609491865873,0.6704029528006941,0.5754284284417005,0.5821907789162823,0.11965988130425842,0.5662739982712827,0.026819417501686753,0.9810579210735014,0.9468351459381614,0.8197389816534559,0.2615992530418106,0.4637975424884818,0.03232789555784685,0.41931849728402465,0.021903187163589237,0.8167852675641616,0.2948321242107173,0.8208245494818324,0.4907874701894654,0.8701540550355734,0.5563792914077981,0.7738960284524594,0.38595469196389653,0.5746334431148251,0.07837457569530941,0.8517479285432621,0.5835907682743785,0.7251006676663332,0.36379840838862626,0.5043498168498168,0.8806620953466132,0.5275714092496829,0.8343005100923905,0.3454378596032244,0.5689705569727891,0.35235343368320493,0.6335821960361485,0.20658110902756677,0.6190229488332456,0.4695309993390476,0.9280569442195596,0.802224425102678,0.7686647717754275,0.3669670766180728,0.7476085747537392,0.4386666160890682
28,3.1451574251784793,0.6892603618044424,0.6304737454998861,0.27371669436296087,0.6287870508796624,0.053516127557730886,0.9132246589706826,0.6811860563280286,0.8818181495285498,0.5885249272179952,0.7995702156876883,0.570376990795199,0.5305318336663316,0.04142102048141402,0.7767680497642677,0.6163945748657476,0.971454850503099,0.7790618042673207,0.8458375171781404,0.5972804211491654,0.7970880238351897,0.6725063634216368,0.6843538340148411,0.18377503803862125,0.5970353798490144,0.03873700539941057,0.9815964403770169,0.9470726302024652,0.8377314386844686,0.26518747704571344,0.4678738567018961,0.028639644015889334,0.640241639412892,0.08467395888522909,0.798212447541373,0.3073909869627669,0.8624122121749831,0.4903421211755725,0.9047415358457552,0.579737462386761,0.8698746425836649,0.44987803818776323,0.6400986991609464,0.11202778903054908,0.8175289115480671,0.559122939296115,0.7671479606094734,0.40548045777609354,0.6069139194139194,0.8308645492095145,0.4729472684503527,0.7372885078754252,0.4445653101256218,0.7363086380385487,0.53186902888107,0.7555480540794736,0.39773210287647837,0.7341695354914476,0.5592066248881434,0.9234676064604923,0.7985380681415413,0.740422329934442,0.3409317641547695,0.7797241744413349,0.5065414525025681
29,3.1143547088788144,0.6671246469735135,0.7327850556649349,0.33214852229260905,0.5353588008497915,0.028630400141508375,0.9373181084948164,0.7395388148911606,0.9120585630597139,0.6744255408168812,0.8969918180932268,0.637552419820405,0.5250943758340999,0.028787536188083333,0.7349295562842085,0.5207781577315078,0.9504268788953041,0.6809858496013038,0.6488667800135396,0.3594806303845173,0.6956626718672929,0.5034101946607324,0.6141343460303686,0.14188048937247952,0.6311277587789206,0.08110814156132533,0.9778226645237812,0.9350566810475591,0.8527752389924328,0.34856246481997216,0.46334579044100516,0.02630477174044369,0.598999490801016,0.09304445903526508,0.8146204055503141,0.33057048229650976,0.8574483874499691,0.5440426177366243,0.8466215602766636,0.5028930747228355,0.8015112102779125,0.4405210465065865,0.6502484082985952,0.14327725318588733,0.8583919252133527,0.5837954307631744,0.7516608998041481,0.3943997717871533,0.5615842490842491,0.8710928439172279,0.560036488158155,0.8346966059490523,0.5105583753096223,0.688009908824641,0.4292361082515386,0.5876831561572282,0.20516903938288283,0.6557644357878843,0.4069106393306617,0.9136916086463729,0.7556454306949147,0.7611931672232213,0.3278764431485076,0.7588759609293755,0.45649036061089754
