epoch,train_loss,train_accuracy,train_1st degree av block_rocauc,train_1st degree av block_prauc,train_anterior myocardial infarction_rocauc,train_anterior myocardial infarction_prauc,train_atrial fibrillation_rocauc,train_atrial fibrillation_prauc,train_complete right bundle branch block_rocauc,train_complete right bundle branch block_prauc,train_left anterior fascicular block_rocauc,train_left anterior fascicular block_prauc,train_left atrial enlargement_rocauc,train_left atrial enlargement_prauc,train_left axis deviation_rocauc,train_left axis deviation_prauc,train_left bundle branch block_rocauc,train_left bundle branch block_prauc,train_left ventricular hypertrophy_rocauc,train_left ventricular hypertrophy_prauc,train_myocardial infarction_rocauc,train_myocardial infarction_prauc,train_nonspecific intraventricular conduction disorder_rocauc,train_nonspecific intraventricular conduction disorder_prauc,train_nonspecific st t abnormality_rocauc,train_nonspecific st t abnormality_prauc,train_normal ecg_rocauc,train_normal ecg_prauc,train_premature atrial contraction_rocauc,train_premature atrial contraction_prauc,train_prolonged pr interval_rocauc,train_prolonged pr interval_prauc,train_qwave abnormal_rocauc,train_qwave abnormal_prauc,train_right axis deviation_rocauc,train_right axis deviation_prauc,train_s t changes_rocauc,train_s t changes_prauc,train_sinus arrhythmia_rocauc,train_sinus arrhythmia_prauc,train_sinus bradycardia_rocauc,train_sinus bradycardia_prauc,train_sinus tachycardia_rocauc,train_sinus tachycardia_prauc,train_t wave abnormal_rocauc,train_t wave abnormal_prauc,train_mean_rocaucs,train_mean_praucs,valid_accuracy,valid_atrial fibrillation_rocauc,valid_atrial fibrillation_prauc,valid_left anterior fascicular block_rocauc,valid_left anterior fascicular block_prauc,valid_left axis deviation_rocauc,valid_left axis deviation_prauc,valid_left ventricular hypertrophy_rocauc,valid_left ventricular hypertrophy_prauc,valid_myocardial infarction_rocauc,valid_myocardial infarction_prauc,valid_normal ecg_rocauc,valid_normal ecg_prauc,valid_t wave abnormal_rocauc,valid_t wave abnormal_prauc,valid_mean_rocaucs,valid_mean_praucs
0,5.143248521665628,0.4595832379207694,0.46327107126280487,0.03881919266336817,0.5030944648930364,0.017171567414563917,0.7462644483416804,0.22407981203714852,0.977013360549267,0.4634968832415437,0.9392003438766533,0.49887272409974737,0.33458543127456347,0.013095255563089122,0.6150658728291016,0.37167151737242177,0.915029388653151,0.16254788084107366,0.6737985039065727,0.22615323513541413,0.6535657338326641,0.44318848851666875,0.4576342373093562,0.03353378535976648,0.4207596469004567,0.016633444429235564,0.9133069255350914,0.7701549663612446,0.5590819572299186,0.024889904178442786,0.42192617938177546,0.014934650724972232,0.3689865878346648,0.018836019486945868,0.33241128518001484,0.011150099455700793,0.6219259304707496,0.07271282632553577,0.5754406556796552,0.04377168493521327,0.7549547622929471,0.16314910099598237,0.7456895482398472,0.2085586141323452,0.6938296944251876,0.280531121790727,0.6221289104499619,0.18717967159368867,0.489010989010989,0.7526420571649083,0.25975612819682486,0.9311688934208349,0.5047421956844963,0.6052042467362635,0.34831424310466796,0.6796479756034535,0.23062366968762613,0.6278815722586323,0.42534322774452055,0.9053346679248059,0.7455198531979927,0.6999220632122385,0.258659040907774,0.7431144966173052,0.3961369083605574
1,4.649694438053809,0.4448515380505305,0.4810254855558969,0.04760970082840393,0.46572694364246436,0.01862486981126628,0.7531842096674828,0.33275656530312264,0.962752755810694,0.41941867933261107,0.8629567362320376,0.2739889653881368,0.3863836081208515,0.015215260658032945,0.6352098277118244,0.41026330932851773,0.9411742888574571,0.23316072946075062,0.6584103804482526,0.2856140500425035,0.5657714778234166,0.39592961334844123,0.3685576470045566,0.02809747887027478,0.39451696868870945,0.01520060338253729,0.9225971533866144,0.7898646048722272,0.48868516710051796,0.021142311715297707,0.4168880400217172,0.018069700936109656,0.36338547677211597,0.01883194893532547,0.35433137833647677,0.011873297347139941,0.6622020929214835,0.07883819871848415,0.5856997494955902,0.05223989009067265,0.8009159762261187,0.3808015275039755,0.7485345459412458,0.1836326491405892,0.7312886582186555,0.3142492267039943,0.6159181167265536,0.1975192355326552,0.4993131868131868,0.7507556423019364,0.35687725938785,0.8485836216638633,0.2907050682757168,0.6245440218006284,0.3816587444478312,0.6558488498984545,0.2986504234708529,0.5313230061165255,0.3686946645541953,0.9122607489252009,0.7648740550042576,0.7323460156666554,0.2874573564276217,0.7222374151961806,0.3927025102240465
2,4.4390233038181695,0.46034653843218076,0.6098756120521152,0.08764772363078058,0.5153755927431064,0.018865928472627663,0.9110179789633128,0.5015094759736257,0.9807449818977192,0.5978793307851392,0.89541528002978,0.4602145657408372,0.3727753108879607,0.014822651137744756,0.6526492336264836,0.4174766308085271,0.9611604589030333,0.5135088460647855,0.6244683109777448,0.262255085105512,0.6666617099235895,0.5446481333067157,0.3882031458497386,0.030023234886327597,0.49912899246240305,0.020360630154000865,0.926124272968451,0.7885738423338845,0.5565224406623513,0.03305871018912335,0.5436812760651277,0.028408262347141715,0.4871594999660581,0.027203820251588122,0.4721137569884206,0.01659962707638817,0.7396581028250813,0.10255458758680398,0.6078557519797847,0.06397408220992443,0.8632713860122003,0.3668998680697287,0.9011455947251924,0.36384968873385026,0.7937849058661328,0.3934488654308279,0.6803997089261723,0.2569901631952675,0.49473443223443225,0.9190013641825152,0.543719638990815,0.8809950235748337,0.45080730713156214,0.6423127354259044,0.3784833379589152,0.6061956635480488,0.25130761571646687,0.6223802522041902,0.49476646561246906,0.9118798169631893,0.764209659171553,0.7833605845791679,0.35638652491409306,0.7665893486396929,0.46281150707083923
3,4.277887446344758,0.513930234333257,0.5939437892644915,0.12889023865406457,0.5970262882232834,0.02731059885498832,0.8495001366504041,0.5473587699035984,0.9776064471362074,0.6054788223611761,0.8926955227719818,0.5539488211127509,0.40328913509492154,0.01647194831447818,0.7023213135339501,0.5398815561304987,0.958976373827859,0.7572407502275544,0.7272807519660722,0.37490864831242454,0.7783134016954816,0.6435450674710229,0.4343904339546178,0.03741365651985888,0.5497792301001154,0.03214641970594691,0.9318057183581359,0.8039163038492461,0.5603467513853205,0.043199205252423295,0.6147324278529196,0.046509528635385024,0.5309524562312216,0.0320835975848285,0.5038766486153542,0.01911297231057331,0.7346263049403754,0.1046819704213335,0.6237190659183094,0.06936317558789803,0.8570511748252636,0.26949537944063146,0.8670299712498726,0.6120050579320407,0.8323257755011676,0.42532373466328255,0.7055267781407877,0.30410391923845476,0.5892857142857143,0.8306061642552289,0.5577379737498133,0.8626195809112116,0.526010098894577,0.6848028459339051,0.4967458382972361,0.7058095557411113,0.38200980275945223,0.7460570547754266,0.6036819620135381,0.9125791063306254,0.7534628030342462,0.8150495522925074,0.35658928295197156,0.793931980034288,0.5251768231001192
4,4.144607521706742,0.5418670330509121,0.707831407017108,0.17761794156364055,0.5693530339172965,0.022934820724719328,0.9385134715055191,0.6462196122644387,0.9873882425982005,0.6907593135102953,0.8569459093108106,0.48681631205353365,0.4658497268293113,0.019873753016723547,0.7235433432013532,0.5396268497228971,0.9626532558017706,0.7020497608700766,0.7968070443708766,0.4436347182668294,0.7278054941458569,0.6272288242650171,0.49831826523585643,0.04048386047211361,0.5319582207434406,0.0326198727174856,0.9449400330216013,0.8405285576440188,0.6044437605765484,0.07914757495047493,0.700271912606125,0.1096320763619467,0.49116580665019477,0.029981584639783843,0.5726559707582225,0.09419786012947116,0.7598109719905398,0.11925550693550385,0.6567450422924861,0.10076951039428343,0.8921837118846117,0.5406606541926265,0.9209881443625769,0.6197102517600974,0.8369290507282111,0.4962158495347771,0.7339591736158417,0.33908932118139795,0.5460164835164835,0.9320922541381931,0.6389958994505339,0.8138118312837898,0.44661478740555727,0.7062704220488718,0.49364652585925034,0.7744691551542616,0.41516749523324187,0.6950499324941103,0.5702549307069308,0.921672610418539,0.7911246484118416,0.8022530063657253,0.39790379711085394,0.8065170302719273,0.5362440120254586
5,4.046416202835178,0.5274406533852378,0.6043978681955167,0.1556140058213676,0.5252593322356469,0.02175009783886093,0.8556306256619431,0.5091458229994804,0.9807533717225396,0.6296943100202791,0.6903612238467618,0.19696231478806112,0.42893010824148375,0.015423576969260463,0.5978377367322035,0.38802637178447463,0.9843354811671644,0.8737826997016357,0.7050639637353602,0.34827311009369805,0.6953430323959997,0.49278426780569473,0.43908177957306327,0.03237676756414927,0.4345419727402919,0.016659204410857026,0.9464265926046658,0.8533790019496408,0.5389825303560356,0.06701474381003497,0.6087311093079727,0.10342772750073624,0.4254059311844236,0.02113705023339548,0.6456030554600163,0.11257556778283448,0.6001102866775659,0.08008495041584504,0.6407460341928779,0.11939934559217708,0.8534997025088771,0.4661397649422094,0.8689105824174915,0.49393677569334665,0.6971682545883556,0.34591854969566355,0.6712327534339209,0.2883411830642592,0.5439560439560439,0.8429420098849414,0.5192701455997168,0.6642045999250485,0.2079372500643486,0.5752003854306289,0.3480850199734929,0.6629180610041794,0.2877193150557171,0.657887256965132,0.4443335281402651,0.9210897446284978,0.7873705267010925,0.6644623042185874,0.25439087451474146,0.7126720517224309,0.40701523714991067
6,3.895775833308956,0.5259140523624151,0.6106528937235649,0.17279060180933004,0.5159537025634476,0.022685649917852352,0.8099527895188138,0.41829191372668695,0.9603197066127613,0.5304760833305004,0.8795435739749576,0.5093182705866343,0.38866428257811647,0.015615456639747097,0.6148050184507785,0.40106890397578304,0.9863797998847503,0.7533354081741236,0.7724228065853093,0.44634578944583814,0.6814894102993023,0.52883279165083,0.5138850815950657,0.046748062241319895,0.5465849294363174,0.021389893545805325,0.9580351326359783,0.8779532124372762,0.5269995165935919,0.05467534120712196,0.5683588739268177,0.10088614345264317,0.4703839479917089,0.024901320085371926,0.48270475950691216,0.08739085974085106,0.6389540104385061,0.08582904053140199,0.6428206680322672,0.16208379932178268,0.8282262965213654,0.3362720533499352,0.8475043406965144,0.338740265751927,0.7740849203063238,0.3936454168790728,0.6826693846305987,0.2876943762637198,0.5206043956043956,0.7869850131275659,0.39787793041995045,0.8293424611371117,0.4749227865329673,0.5805382613392315,0.35418308660094455,0.7311932610520155,0.36314209790914015,0.6384775372102304,0.4745853420618425,0.9216763499338728,0.7857401643099732,0.7344545105398114,0.27533198867547937,0.7460953420485487,0.4465404852157568
7,3.814348562356489,0.5307228455843065,0.6715842752453113,0.2151199623208339,0.539214165933102,0.03146368584294466,0.8003016610089084,0.47783619853074744,0.9583145384806718,0.5226710760909342,0.9594931967074838,0.6824176307569964,0.42252793597859234,0.015440570665413527,0.6753376260755598,0.41941701714581003,0.9828286447692388,0.7386632746994355,0.7051861978090933,0.3749605128652843,0.7034731815259284,0.5000115812498636,0.46711692492199625,0.03694072128190401,0.5511848811480696,0.020258571793016475,0.96038522446666,0.8818948061310307,0.6221242035667975,0.1321168614275041,0.6748585994785483,0.13835461933532028,0.5045537941930522,0.02792453153238257,0.6335710951204507,0.11552334339505768,0.7145853834474731,0.10721964169990453,0.6570805179073567,0.192174715586624,0.8420997579840901,0.47980240946444547,0.7993720729586169,0.4454824116844469,0.8139124349217742,0.4487432801173727,0.711777559711308,0.3183835192553306,0.5364010989010989,0.7714854759609673,0.46036246424774013,0.9352345717746926,0.6080914902995345,0.6491545957119675,0.3753446731671321,0.6333524109314637,0.24705307717029917,0.646770649423057,0.4177625592080961,0.9219442238822901,0.7810949557419927,0.7644261467566874,0.3103448575208003,0.7603382963487322,0.45715058247937074
8,3.6783769877209354,0.50202274635524,0.6647887807333512,0.19039829413877948,0.5434954473376541,0.02294090451212511,0.8037743042178938,0.5110984324319137,0.9673113918028451,0.5491946509338074,0.9318201186315201,0.5093608761760461,0.41893196024615287,0.016317408543137228,0.5273934739968569,0.320582589375572,0.9904028498087905,0.8947056530447614,0.7098237776223804,0.42548112120124504,0.7274647467562394,0.6240884415796465,0.5264986277268369,0.05082454136577565,0.5135964491600822,0.021633816733823204,0.961675849360013,0.889161101179447,0.6331068978776312,0.1507291746882875,0.62118084351079,0.1290987193186358,0.4736793345899586,0.027980946949782776,0.5572670207990984,0.06636569033159621,0.651281389839253,0.09934935518338774,0.6891188663761149,0.2091483549154752,0.8581126146822986,0.5012756859400045,0.834407060396707,0.4041756591205085,0.799867222144662,0.4941473224826986,0.7002272285280514,0.3230935790975662,0.5020604395604396,0.7784586730833475,0.47515342880261274,0.9040069954651491,0.44067349182460325,0.4924727871277369,0.26899920206524897,0.6536433585399658,0.3143230871072936,0.6613735125473497,0.5238288144716863,0.9198083373740874,0.7820787572383217,0.7338118427227337,0.3039082552193746,0.7347965009800529,0.4441378623898773
9,3.5718166806681286,0.4916418594000458,0.6723233955899562,0.17627406308260796,0.5899844469073976,0.03107618282090897,0.8196703288488786,0.4507045831861399,0.9715916830185998,0.6876210169323257,0.8754301072270562,0.5880614314360681,0.4341127291304586,0.015911181802437873,0.8810642599030557,0.7533139291324145,0.9753175127036513,0.7959989771861725,0.7079126907552313,0.3597877108842721,0.7604238898152954,0.6415842818571362,0.5616233843254446,0.0757388721253669,0.44027669827452204,0.01889046592842595,0.9580877285907057,0.878486782480338,0.7003700043395973,0.13679975227886523,0.6692277488082383,0.13109874893755852,0.46227799439633166,0.028849068837685014,0.7738734040249406,0.05975840498764783,0.6054615718639651,0.09674609469641339,0.7380719876323488,0.30470414304955096,0.8653748917492267,0.35568254582805514,0.8640842087466911,0.5951022023357836,0.7811816749782649,0.4693695554014072,0.7321701064377208,0.34779818160034465,0.5077838827838828,0.7808059280945854,0.43237969360371203,0.7982761175168422,0.48173110379500106,0.8307884879430439,0.6439035912950072,0.5947576468779298,0.1680500179120995,0.6822637157209466,0.5224240523695858,0.9021581989496947,0.7491014108108416,0.7213242034262599,0.2844648930871947,0.7586248997899004,0.4688649661247774
10,3.4145579018690015,0.511640332799023,0.664322428073662,0.21273810892113423,0.5080441263890219,0.034314712213026045,0.8035947169622807,0.4198547676599451,0.9565783382619442,0.5370914979119094,0.9179056792975521,0.5201183227506477,0.47464674900738224,0.018936039991543977,0.6801986004433275,0.4599788816624393,0.9894389438943894,0.7645948550685019,0.7110044106307561,0.3858813011439427,0.6122197658342741,0.47508705037384663,0.46463925524939786,0.04347348423251873,0.4428227457491459,0.024055583876312313,0.9812442572442004,0.9473567276924137,0.6240727933278205,0.14745030541871904,0.6186671807599831,0.2169551790141674,0.47517405685686837,0.03901639317060747,0.650121503541699,0.11182391034999267,0.5984786133335864,0.095755037800767,0.6868247121967859,0.2612710725704554,0.8526495766309607,0.3472847546473162,0.7833596577549541,0.37972908718924375,0.7577193306222524,0.4639054139054431,0.6933512473664657,0.313939658525677,0.46863553113553114,0.7681328240172663,0.3730979880473642,0.8874574040665498,0.40592999089165127,0.6255153268169427,0.3491200877701165,0.6098250342222213,0.1795708035936299,0.5242540189235134,0.36191552668418064,0.9159308339243845,0.770650600412833,0.6652890141085115,0.2557617144836094,0.7137720651541984,0.38514953026905496
11,3.2585753361948226,0.681627356690329,0.7572917551922285,0.32691647969217036,0.5947054870641751,0.045650826679523894,0.8699827468609149,0.5922353824151999,0.9872660966191966,0.6859987322002761,0.8980281204383888,0.5792880780412166,0.45183150033166,0.02032968860069693,0.7457357115663517,0.5683437523338754,0.9846925454450206,0.7918014826235407,0.7404583657897532,0.45601147989872787,0.7522382669038974,0.6383581475234849,0.5819654806580322,0.10412626614673066,0.5524706384301689,0.05828698518403345,0.98431648225661,0.9577001175700244,0.752821876774957,0.25492839593127137,0.773666688542978,0.27928147531308317,0.5006774431426666,0.028758585917174496,0.6546942779062874,0.16714064163934092,0.6408863577735752,0.15834891050208733,0.7465738933320847,0.3904550718434262,0.8984221324925945,0.5428603926560311,0.8632987639619739,0.5457563848124375,0.8140847884871534,0.577781532528344,0.7520958827259395,0.39865267318421355,0.5361721611721612,0.8315063174168076,0.5515652110052738,0.8298087286439313,0.4515702264149025,0.6946885466208909,0.42858932508395425,0.6123481889451013,0.20920321722420143,0.6640658223419897,0.5003084083274097,0.9084177736670811,0.7531661033257222,0.6989983021970836,0.2904259051645524,0.7485476685475551,0.4549754852208595
12,3.165391059697434,0.657201740325166,0.7152807921866522,0.3096011664131575,0.622242670814158,0.04181475210630489,0.7926275876290089,0.5156640180724651,0.9810871140187063,0.7262362396871467,0.9132711345071473,0.6962501636222967,0.47445682403876865,0.02550587298727052,0.7223661804221204,0.6263113918697061,0.9851937765205092,0.8055262813606223,0.7534373684531466,0.5214633849773443,0.745252483656992,0.683881883857633,0.6613044502505675,0.16868800961472943,0.5769185483097459,0.043135504509077494,0.9812335328418869,0.9340911653597669,0.7053273598267805,0.31864115973131657,0.6952509262629096,0.2340542923032576,0.5604440158569122,0.07267745591639307,0.6335677231442703,0.06577595917554825,0.6781185774154171,0.17033508652214693,0.7854354876803715,0.4561480983852708,0.9037606689209647,0.5914923824117103,0.8655406276636439,0.5856459688521044,0.8225112091233245,0.584980341680464,0.7533922299792729,0.4171782081552605,0.5579212454212454,0.755808140605678,0.5047786871099996,0.8583447358253224,0.5034124168861998,0.6534656092988639,0.46815525468608876,0.6321081849302636,0.2427100996129831,0.6428170453737968,0.5299602506580333,0.8952472006611462,0.6981795725216027,0.7065168055267065,0.3097875217458552,0.7349011031745396,0.46528340046010896
13,3.0339799248510695,0.656056789558049,0.7247591015173008,0.28170222123135275,0.6174188175696734,0.08630227296928915,0.836537036270609,0.5199339354017878,0.980925856650466,0.6395518056222682,0.9169347139752086,0.6779993337164155,0.5015001867753008,0.026599473355031423,0.6662275663936617,0.535966150607821,0.9688985279480329,0.7971547715937555,0.7181886822005059,0.5326794476691106,0.7822061772622737,0.7012397588843962,0.5847658733950335,0.12962789052943688,0.544655053232832,0.04320388551121978,0.9913183644102994,0.9740693711630986,0.7478241832025708,0.2972022013969606,0.6625818870108406,0.2967295488329094,0.4876828096826478,0.035033207523260404,0.6911314778472405,0.14514018440434456,0.6887467419922245,0.20282864505448625,0.8129760190477687,0.5075527653938038,0.9518536555412749,0.7266222661735267,0.8394168933874707,0.41982960500805194,0.8001048261994197,0.6046678761851879,0.7507570205233026,0.41734711901034155,0.5849358974358975,0.796571763893573,0.4935582797634504,0.833992789557932,0.5075087389570568,0.5822204373891041,0.39303462358124214,0.5691368952917485,0.214675000130203,0.6764161205157778,0.5324752227208002,0.9005839876446414,0.7120713350557287,0.6935119547457704,0.3152265395219842,0.7217762784340783,0.45264996281863795
14,2.9215928005103926,0.7729944279062667,0.7072718165118423,0.2978260740421125,0.6221275049525121,0.046369899427314974,0.8232628032494901,0.534933475465015,0.9877156925257518,0.7255533643270637,0.8937542784167035,0.6301708134955665,0.5200785023203602,0.04979169826256936,0.7067292609005881,0.5873136060390044,0.9830733930535911,0.6081960203071635,0.7523658763036662,0.5231516349475434,0.7494407541579196,0.6814749731150088,0.6588648352119033,0.2333557254561351,0.5642412295643143,0.06529069108409877,0.9909231357488942,0.9632230835835658,0.7684623186981988,0.3065967710277611,0.7824710337750361,0.31214020927791764,0.5660546585491277,0.08980935320392378,0.6954558499665424,0.2485955561240132,0.756195002845725,0.27284822867051883,0.8085029823662532,0.5151609073169522,0.9125658768153838,0.5115608241454949,0.8965200615369726,0.644024679258306,0.8489648000872403,0.6408723039585591,0.77250189397991,0.4312845405698004,0.5741758241758241,0.8166446212858716,0.5398893770470095,0.8085194771993737,0.43567194948781346,0.6152125817902693,0.42660929737561615,0.5982412661260873,0.19630196804929184,0.6404007718082285,0.5281185253246873,0.8939207945722182,0.6786961951422924,0.7173646358718712,0.2960605947695122,0.72718630695056,0.4430497010280318
15,2.8000123671889896,0.7198687123120372,0.7163862449254423,0.25867840162339767,0.6168321558289129,0.0970141581719592,0.8438992933013589,0.49949780069279537,0.9400301490822519,0.5355761661269433,0.7515251553474805,0.47858768829358433,0.48776858004786233,0.04602857658704981,0.7065078502613769,0.5901357690627275,0.9468112525538268,0.702460980715071,0.7718258973708333,0.5295047358428981,0.7527945387001316,0.655723629990298,0.5919676716824103,0.18138629946819457,0.5212684925798162,0.03576978372339183,0.9925897612795835,0.9730381790650311,0.7155114251120194,0.252993870825369,0.7292761725205686,0.2680164654208491,0.5288277164912072,0.053361454818698695,0.7576564465815281,0.2453193023582795,0.699156604370315,0.2696003616121471,0.8030416341815301,0.5158820751948142,0.924565567678701,0.6601287925785836,0.9187428350559825,0.5729074170665731,0.8139464382759729,0.6318394456352576,0.7514059946922326,0.41152051613063245,0.5528846153846154,0.8014121800529568,0.4758156735364132,0.6583043550256665,0.34109391612619744,0.6398192185697305,0.46113623906393864,0.6104160482463914,0.21323269348002716,0.6562698486446894,0.49516549136502486,0.8969858259903796,0.7112407023842231,0.6696208082346695,0.29066476584041034,0.7046897549663548,0.4269070688280335
16,2.705034185289363,0.6191893748568812,0.7871883355451104,0.2929376243004479,0.5152573861986448,0.06950022792040622,0.7421653008615265,0.3884380745586339,0.9537297459758453,0.5727662389605043,0.7754252537074964,0.3748087469236202,0.4647237205891895,0.03994491447856714,0.6428632435753272,0.46947403368414004,0.9812178741683691,0.739811982963717,0.7543946484281258,0.5014107581717336,0.5647731062856991,0.4362404290694769,0.6315363364095536,0.15217842683960126,0.543161094224924,0.03687288334960277,0.9955659445606589,0.9882689445145011,0.7200549899187317,0.2041584602018769,0.7329948347045803,0.2508178426015786,0.4947381917057154,0.04335628463537509,0.711923832303382,0.24165141575952478,0.6319065612352921,0.24986834654962514,0.7785387550385429,0.4828143149288451,0.9097534740822769,0.5408023975731336,0.8390069429704912,0.41245549541646814,0.7478793590951932,0.4908058070181424,0.7235817696174854,0.36269925683725096,0.510989010989011,0.7140080256348311,0.3377835394799973,0.6990395760887564,0.2627595136884991,0.5629508016000504,0.3287061775519033,0.6097134516286787,0.21762016159650865,0.46231558866775624,0.29048136939949987,0.910169861251516,0.7756904368695757,0.6102917984106103,0.19049241655231247,0.6526413004688856,0.34336194501975664
17,2.6472066092896975,0.7920769406915502,0.8206393125404494,0.4338011744385093,0.6428201116842799,0.14504246305927815,0.8092612874236594,0.5208957235256301,0.9653800047772649,0.6504545415975621,0.8630096718358539,0.5889073716768256,0.6131729186522697,0.07155665975323415,0.7291699090253115,0.6227137125691347,0.9914097123998113,0.8391755637537692,0.8039984465177212,0.6218427132811378,0.7368083222443165,0.6738136498192765,0.7138775036160139,0.32591472462139565,0.6578529589781413,0.10923075293893932,0.9977079295752816,0.9915326616287373,0.8144659530295529,0.380009491993763,0.8186855270301714,0.3771864590777334,0.5710443504403613,0.10462378709965725,0.7435623354756622,0.2733052450230642,0.7780186126352906,0.3718446813569141,0.8233273985651967,0.5588157513094125,0.9306803336135326,0.6829931595139997,0.8614805565279819,0.5095571467538784,0.8394343938984501,0.6759532778004262,0.796627615931208,0.47859866875419443,0.565018315018315,0.7839209842525021,0.48967561560903455,0.7868394906790074,0.4109240079189218,0.6486276033190895,0.4609988935157272,0.6399854355351586,0.2614861755524412,0.6358937287848394,0.4957538749252932,0.8934195748669669,0.7048800236053552,0.6615501786865077,0.2877473159010802,0.7214624280177244,0.4444951295754076
18,2.56717338886673,0.7494084421036562,0.7162940693866079,0.23588500997696482,0.5676939613559622,0.14704819887261686,0.781808594991357,0.42845767713461874,0.9403477286276616,0.5804128370249967,0.8111800518080536,0.39582267231040563,0.4901283111670212,0.0714907949296095,0.5813551862789397,0.44444118771356744,0.9505331866519987,0.7053170231423667,0.713850555889955,0.4709717137971548,0.7100172720060453,0.597509048826871,0.637173364392065,0.21435603493588218,0.5632314759997485,0.0799211510906716,0.9992699816417349,0.9983086729069763,0.7460493074536323,0.29287733696547574,0.6522393636379908,0.23213548613853707,0.538051311784721,0.08406283280611095,0.6435439020058762,0.21859398074557254,0.7183238086004966,0.3645552171271149,0.8008129344904822,0.5187274060981295,0.8933205302752799,0.557715860479176,0.8301511257633547,0.4565294558584164,0.8037081032239972,0.6123735412890258,0.7313220057924084,0.3957960518259209,0.5423534798534798,0.748224210691651,0.41057926417750934,0.7515469622889813,0.2969462996609614,0.49948000695268324,0.30330850780747953,0.5585733871777185,0.17579158771006143,0.6036032293505769,0.4395787119334924,0.9069668417175345,0.7336427723249741,0.6551400702200398,0.25395613932308114,0.674790672628455,0.3734004689910799
19,2.522729844475928,0.756659796962064,0.6884178330249919,0.2669194005007236,0.6151377353298456,0.12763030826698346,0.818973311510595,0.45311512391126874,0.9740143683152837,0.6819020606749439,0.7458632677274584,0.40321405697483265,0.5864495621646785,0.07328411170732707,0.7171885203694544,0.6005835967119662,0.9702813138456703,0.6953842443102758,0.7585482710563484,0.5242409222028134,0.6742736393912434,0.5915659464443761,0.7038109821390329,0.24518072197826252,0.560469950488009,0.06944322942694944,0.9968048027781009,0.9921038978533949,0.7338772902435835,0.3152407548795224,0.6809730906454904,0.26027796599295,0.5197144323751799,0.0655782096459723,0.7389056363705848,0.20852478183715664,0.6770980824321305,0.3456258908867847,0.8006218689085028,0.5129221065188294,0.8908889373532395,0.5861187901227516,0.844009042492425,0.49066077586862206,0.7954084686626886,0.6051849672153371,0.7496241094374789,0.41430463017872926,0.5302197802197802,0.8009098802373724,0.44109561483808285,0.6532182625797811,0.24773426290261485,0.6474479219526308,0.4325252822456118,0.5922510426832783,0.193608739180788,0.5720066467337535,0.4360044639537164,0.8993199068112778,0.7324597341834552,0.6363790225176363,0.26393210182034066,0.6859332405022471,0.3924800284463728
20,2.4807572427182496,0.8148996259827495,0.8283891670861417,0.47262587443529414,0.6110795640268978,0.16147171621874423,0.7982463897036153,0.48483255085991694,0.9768227387941552,0.6853998394398138,0.7300187483531145,0.45783182942244727,0.5438125090946658,0.09610373283313701,0.6727767684911146,0.5883114818090913,0.9731740793126932,0.7206299504490047,0.7792055529000304,0.6020315459907615,0.6661986196795806,0.6127960568546434,0.6881939204839363,0.35862825888688277,0.6805755562243881,0.13903744358606376,0.9989181706457901,0.9961043172332963,0.7636019047383588,0.36063494086097897,0.8281457887106302,0.30795540332003357,0.612951671382886,0.10328586552447971,0.7037981190367538,0.2682286680970628,0.8010701722926376,0.4431809124118662,0.8105362585394181,0.5146428133614549,0.9092317529955556,0.6228901722851174,0.8017771051956966,0.4492941222382569,0.8734263637142567,0.7379747569922649,0.7750886782455598,0.4629041933232097,0.5803571428571429,0.7913773459593966,0.4680697169514444,0.6566462729102935,0.34977658575073,0.5983860092414692,0.4302951757045901,0.6265101022288755,0.24669939362711746,0.5658565048893942,0.4573570768307551,0.8952130464210969,0.6902344359664676,0.713176051332944,0.3246180329931703,0.6924521904262101,0.4238643454034679
21,2.425806329683642,0.803297458209297,0.7926181938824206,0.33352746070779554,0.5840684184040368,0.19718773894810004,0.7998160005498833,0.44530951126145746,0.9288067843084613,0.40271314164384164,0.6805313654126868,0.3462048262190066,0.5481543261632196,0.08524826220309152,0.5934109193250114,0.47193518484479596,0.9354260568914035,0.5862556541635084,0.6662671699378804,0.4640772593092713,0.6196974719170243,0.5409172353899956,0.6779679319695168,0.29591430799106483,0.5754768464466795,0.06538383755650237,0.9993942891306735,0.998543733272785,0.7407158969140715,0.3271793269928632,0.7586965795392848,0.2909246499749716,0.5507305877900288,0.16113828293757626,0.6767840938638277,0.2643630176874868,0.7715299696037916,0.4020333913352905,0.8031778410409555,0.5389732512891798,0.8603237889146972,0.567277496817807,0.7798768402975901,0.39481271770801124,0.8152766435004462,0.6306246354701313,0.7344885461728906,0.4004793147147516,0.545558608058608,0.7765563121944842,0.40914775665695086,0.6003528236056278,0.21861980614561174,0.5180781430269603,0.32808336711164643,0.47239265113835605,0.13063348109418446,0.5157348849666844,0.37237168223038997,0.9030268883617558,0.7332720345556619,0.6637344207793561,0.26464359400849746,0.6356965891533177,0.35096738882899187
22,2.368658320028976,0.8219983207388749,0.7329837254607142,0.2892971474567287,0.6091589927434105,0.18842153182320148,0.7211306193718311,0.3331003212996472,0.9400501366060889,0.49236866819504804,0.6436611727497445,0.36623006826139254,0.5812807998140436,0.10449090004094215,0.6092087128380268,0.5115777459780253,0.9347674576981507,0.6901989133273471,0.7300357979558357,0.5043137590280883,0.6654471565585944,0.5886195393272142,0.7412448807456731,0.28833945440338693,0.6103750276995942,0.10593766721186752,0.9995050751582418,0.9985777924683688,0.7504110255697918,0.34640744867043904,0.6739066070437745,0.26045428248744285,0.5708095468802743,0.10672400065801245,0.6215923370717309,0.20260098218078837,0.7213251248542816,0.39517647004297934,0.8032485934120998,0.5334668171388139,0.9159849073542771,0.5983709808764985,0.8379405665309557,0.44796993332457374,0.8283085563224368,0.6681458354147649,0.738289855474526,0.41003592089161695,0.5448717948717948,0.6917290355604351,0.2679030242879574,0.5730957838378028,0.2517362544717504,0.5242894789337197,0.35238449070684585,0.568640913332892,0.17959502055959214,0.588097099159866,0.44144254530389604,0.8977137849753752,0.7177933123805618,0.6583628777078891,0.26927819080573934,0.64313271050114,0.3543046912166204
23,2.3575294004688825,0.8427600946492634,0.708327422549667,0.3322608599444172,0.6643895753230346,0.21697886294890664,0.7053821844702057,0.38363013607792007,0.9057890531539821,0.4965371052563138,0.67375891932248,0.3678782448885629,0.6070883903874659,0.10627876240459957,0.6722783430605175,0.5716099793831521,0.9056614804337575,0.5735071351656816,0.759548273023404,0.6077887272302056,0.7053698714379462,0.6369322399464612,0.7442276391959435,0.35675150437721664,0.6214512272160503,0.09114936913151221,0.9994716510052912,0.99809134565446,0.7692931531305283,0.3961866367774947,0.721351851630879,0.30082717340164405,0.5912132788155113,0.15380962377869645,0.755691333796418,0.27090908805204195,0.8035430209566721,0.4746887373756744,0.8322780862133023,0.5734675442474696,0.9201510534997024,0.6303415952399459,0.886792582853016,0.53333322697546,0.8540027490288822,0.6931705976256162,0.7639573245683935,0.44391493163106605,0.5831043956043956,0.6832266145550541,0.3486812261430949,0.6029354517275138,0.2452219068924867,0.5899398406249016,0.38793569714082854,0.5589449732308553,0.23169482768950975,0.625440428102128,0.47486236529297465,0.8995808003310718,0.7351721464623521,0.6830103128656061,0.2605919554014574,0.6632969173481615,0.3834514464318149
24,2.3639494518580015,0.8491718189451187,0.8531830795782152,0.45733386502302764,0.6326976785907044,0.19228729419144702,0.7982937934462138,0.4912416286779414,0.960210145370988,0.5691865278621612,0.723117557646219,0.4304788218686252,0.5974441075699746,0.11273930036745536,0.6759558430017818,0.5978820300606803,0.9477028655246478,0.6751923655229687,0.7340017511713817,0.5212083165796119,0.6648850618936507,0.6090299325949351,0.7266628721858517,0.4086768511256845,0.6310506662785967,0.12643506019889178,0.9995180203411131,0.9986702503002838,0.7619812245731807,0.37611681728924484,0.8265979153864053,0.33514724412839286,0.604170715671952,0.20824530423938548,0.6791478491662601,0.23297016231192866,0.8130091669974533,0.45116922609504767,0.8067856992709771,0.577504277773682,0.9286127173749638,0.6576046330774564,0.8153912262341314,0.45532030673625623,0.8594296843589964,0.7041995221714596,0.7745386200742572,0.46311998809984395,0.5554029304029304,0.7798946127148826,0.4581978934067878,0.6449213155425407,0.2951348768423804,0.5954034131142072,0.43844851816080027,0.567680982695622,0.20215938594310465,0.5698412655031239,0.4451877997994194,0.8988861230325476,0.7141567285271434,0.7115226315530963,0.30121756996595916,0.6811643348794315,0.4077861103779421
25,2.324132056602421,0.8518433707350584,0.6646908033653878,0.2689449203118199,0.5563088847231534,0.17185203406105373,0.7013161284488274,0.3741743249067615,0.843347288408618,0.3303905695029866,0.742168449717886,0.3818630934210189,0.6026804302950168,0.09264686165194386,0.6822623792982643,0.5720582708502235,0.8427517418408508,0.44871322230602717,0.7117523221093133,0.5271412329742234,0.6012917909009099,0.5079806443701554,0.6462638915887727,0.26379682730462256,0.6295944117929162,0.1229775859576314,0.9998864590800942,0.9997512249587504,0.7507161636659251,0.3433944037847479,0.7182471555823375,0.2862566181340889,0.5956473464407965,0.12528214350169506,0.6619560159427034,0.25983139815797124,0.7731930832100864,0.42234577937949846,0.7810220949059318,0.5334612069630762,0.8796717222512772,0.5640510870559863,0.853220139851744,0.49090503906219635,0.8326502004550158,0.6731224879688872,0.7304835865398105,0.3982245898447894,0.5592948717948718,0.6656867833756301,0.31034291572680794,0.6719960606932134,0.2533956702676794,0.5983165990646541,0.38447652094192475,0.5413709816919126,0.18954035362510993,0.5037732239391737,0.34911720661602874,0.8980706593887388,0.719126872115243,0.6799005344321415,0.2720599295644802,0.651302120369352,0.35400849555103914
26,2.303682154903393,0.8619189374856882,0.598821084664213,0.23333266211254106,0.5833405549550208,0.19985757704648255,0.7013711897190763,0.3838330968964122,0.9218054754957893,0.44555734422371973,0.6550467279784402,0.3138178315363788,0.5741334161485988,0.10935953263825976,0.6652038139613248,0.5566990955829135,0.8786922311278746,0.6030966859552048,0.724125133513909,0.5410640252714815,0.6110046333129825,0.5183943805000643,0.7039887351694007,0.31342648032477277,0.6420144137112165,0.13391069910335904,0.9998868526361424,0.9997326905432502,0.6948492168881248,0.3207452782445371,0.6356926686514448,0.27380330865805486,0.5647395261338688,0.12859884621978762,0.705719021467499,0.27177071258722874,0.7763638887485894,0.47447112221554555,0.7948153892901417,0.5346587627637612,0.9314267081389759,0.6267344287775094,0.8505388466687432,0.47943444084845793,0.8010273207214342,0.6241315423441653,0.7279366749592185,0.4130195701997222,0.5741758241758241,0.666817356611342,0.338789788635507,0.5853661725102622,0.1928349762483279,0.5995607327381557,0.3949206059556979,0.5696419533467304,0.22959936090707928,0.5122136465752377,0.3604652112767521,0.8993616647325062,0.7280849210628989,0.6508739631359586,0.2632552486518857,0.6405479270928848,0.35827858753402125
27,2.310289751536136,0.8426837645981223,0.6845407402807104,0.29736549719708194,0.6170077552615215,0.19259411396491702,0.7367364784014874,0.41905230688970274,0.8705554903013625,0.4667843782136098,0.6120702064654109,0.3049223875924919,0.6191547677466458,0.11479583218755263,0.6874038082240537,0.6044194586554523,0.8611204358531092,0.4901389872094899,0.730433143217395,0.537156603526046,0.6237026038053136,0.5535434593323361,0.6768867520452306,0.31534036231465773,0.5919914271823146,0.1085093938955842,0.9997517504670246,0.9990824255617529,0.748486833844174,0.3255515461165244,0.7227475851535419,0.3097446789066878,0.5609652332645506,0.16908475501101117,0.6781617334655148,0.23661434484054905,0.7891227031235857,0.4647156430870109,0.8086338058930913,0.5712782793924711,0.8660044930687745,0.578335212683112,0.8141318193498435,0.44778936215366566,0.8192731311187313,0.6424752800994852,0.7326764862515176,0.4158770140377815,0.5652472527472527,0.7037499471787892,0.39701754754906127,0.5344398834476488,0.18354279528012118,0.5994971553493081,0.4142672896368061,0.5609566632426649,0.20175590076085437,0.5358767839866191,0.40290842346435507,0.9034287616096371,0.7232157270477823,0.6663482916338972,0.23102769822602898,0.6434710694926521,0.36481934028071566
28,2.279680280050843,0.7928402412029616,0.6791547633834307,0.26335833620162447,0.5918434443638664,0.18918950871738116,0.7141826892836001,0.354370118335151,0.8143740154293814,0.31555593894322537,0.6834291867139389,0.34413344095105186,0.5730442610217901,0.10227446055961593,0.6126939265792845,0.502387121978837,0.8754090837655194,0.5798842403610753,0.7217045177369417,0.5166657981718684,0.5974529081754266,0.47178439036644565,0.7746243958209094,0.3039020904286678,0.6605451941617524,0.0776748222849468,0.9996020586129769,0.9990895471942067,0.7234326539402177,0.34236636576517265,0.7142784695332589,0.29389857954554444,0.6388156322446197,0.11173886260620612,0.6195133264245289,0.2463858537777444,0.758263789054992,0.4393637523832644,0.7752144189914403,0.513780568777423,0.8836860526421657,0.5645849990311869,0.752966053287735,0.35281019119115786,0.8191146485251531,0.6216145751055215,0.7265157040769513,0.38667334375805995,0.5293040293040293,0.7002808892460799,0.3176591979132968,0.6240823535905503,0.23019201252610294,0.5368979250440084,0.32929563601946593,0.5362445890450451,0.18169228900580708,0.5186245196696311,0.3290013311850247,0.8946715646007506,0.7339377445579431,0.6299795660039378,0.22017244053364482,0.6343973438857147,0.33456437882018364
29,2.2719521145903965,0.8703152431112129,0.6542400747863946,0.315875888939604,0.6478296366232001,0.2772278572590244,0.7747244247236772,0.472863847403106,0.9185714447870562,0.5336804823722631,0.6827831545053906,0.4000115199604841,0.6351799625693478,0.1301635443248677,0.6416735386281249,0.5791241740942319,0.8819975902352141,0.5631614421810782,0.7496364635091488,0.6068537504050003,0.6828951791593393,0.6139541145710249,0.711879800073144,0.3778396150373101,0.6205874959897603,0.11650595856087895,0.9998147756570293,0.9995699386651777,0.7216877064480429,0.35980069339970866,0.6347861690004714,0.29691733760237987,0.5901915346109746,0.1340785419530226,0.7016771460193072,0.3076018290796306,0.7939524697809079,0.4724144343676882,0.8300603240868756,0.6097950930079953,0.9167827340810488,0.6612850547938539,0.8286734972338683,0.49113962860915394,0.8284711732445432,0.694165698718879,0.7476407407160395,0.4551832020593802,0.5872252747252747,0.7317599389586129,0.4361978139445561,0.6016884403424524,0.2710188612085509,0.5645508811592783,0.4145484184200472,0.5737972037081726,0.24258303262831457,0.5927610182183911,0.45221678431179946,0.9023871819386395,0.7259673752800443,0.6597505904436597,0.25572175864663554,0.6609564649670296,0.39975057777713546
