epoch,train_loss,train_accuracy,train_1st degree av block_rocauc,train_1st degree av block_prauc,train_abnormal QRS_rocauc,train_abnormal QRS_prauc,train_anterior myocardial infarction_rocauc,train_anterior myocardial infarction_prauc,train_atrial fibrillation_rocauc,train_atrial fibrillation_prauc,train_complete right bundle branch block_rocauc,train_complete right bundle branch block_prauc,train_incomplete right bundle branch block_rocauc,train_incomplete right bundle branch block_prauc,train_left anterior fascicular block_rocauc,train_left anterior fascicular block_prauc,train_left atrial enlargement_rocauc,train_left atrial enlargement_prauc,train_left axis deviation_rocauc,train_left axis deviation_prauc,train_left bundle branch block_rocauc,train_left bundle branch block_prauc,train_left ventricular hypertrophy_rocauc,train_left ventricular hypertrophy_prauc,train_myocardial infarction_rocauc,train_myocardial infarction_prauc,train_myocardial ischemia_rocauc,train_myocardial ischemia_prauc,train_nonspecific intraventricular conduction disorder_rocauc,train_nonspecific intraventricular conduction disorder_prauc,train_nonspecific st t abnormality_rocauc,train_nonspecific st t abnormality_prauc,train_premature atrial contraction_rocauc,train_premature atrial contraction_prauc,train_prolonged pr interval_rocauc,train_prolonged pr interval_prauc,train_qwave abnormal_rocauc,train_qwave abnormal_prauc,train_right axis deviation_rocauc,train_right axis deviation_prauc,train_s t changes_rocauc,train_s t changes_prauc,train_sinus arrhythmia_rocauc,train_sinus arrhythmia_prauc,train_sinus bradycardia_rocauc,train_sinus bradycardia_prauc,train_sinus rhythm_rocauc,train_sinus rhythm_prauc,train_sinus tachycardia_rocauc,train_sinus tachycardia_prauc,train_st depression_rocauc,train_st depression_prauc,train_t wave abnormal_rocauc,train_t wave abnormal_prauc,train_ventricular ectopics_rocauc,train_ventricular ectopics_prauc,train_mean_rocaucs,train_mean_praucs,valid_accuracy,valid_abnormal QRS_rocauc,valid_abnormal QRS_prauc,valid_atrial fibrillation_rocauc,valid_atrial fibrillation_prauc,valid_incomplete right bundle branch block_rocauc,valid_incomplete right bundle branch block_prauc,valid_left anterior fascicular block_rocauc,valid_left anterior fascicular block_prauc,valid_left axis deviation_rocauc,valid_left axis deviation_prauc,valid_left ventricular hypertrophy_rocauc,valid_left ventricular hypertrophy_prauc,valid_myocardial infarction_rocauc,valid_myocardial infarction_prauc,valid_myocardial ischemia_rocauc,valid_myocardial ischemia_prauc,valid_sinus rhythm_rocauc,valid_sinus rhythm_prauc,valid_t wave abnormal_rocauc,valid_t wave abnormal_prauc,valid_ventricular ectopics_rocauc,valid_ventricular ectopics_prauc,valid_mean_rocaucs,valid_mean_praucs
0,5.534634161410409,0.44561483856194184,0.3740632962936392,0.028291700490223125,0.4547126154544407,0.1506008829079739,0.6810650664527452,0.02861079563544862,0.4561709593423577,0.08498214742057691,0.5413841128891792,0.07857653858942042,0.5587139976134177,0.061640918871034206,0.7960531209132578,0.16065693657837898,0.6856582013894819,0.030708529483625627,0.5969767602185989,0.2827193254991093,0.6725833898732108,0.03705713001316936,0.6599905469992536,0.22429626391433208,0.6917109237863005,0.3548234553442424,0.744261956165365,0.23752321614201743,0.5729837248813168,0.04422403783439228,0.6771565679965562,0.02739053925328181,0.4803363335039295,0.01977698060481598,0.46324433564201306,0.015066205296658104,0.5660955336783385,0.032616050360426016,0.5686847500453913,0.017574972930885963,0.6948032909680861,0.0732046047953802,0.5192687346710979,0.0363781052764117,0.626574919579471,0.03869052264990535,0.7462688930230095,0.9350643498236384,0.4106003345872714,0.043822139549129974,0.6512145549217219,0.08114947301891152,0.687676129899319,0.17374944163398162,0.5980071111331696,0.06879051665306621,0.5991207467378497,0.12474021409520138,0.5533424908424909,0.4312838102115113,0.14153278821814866,0.5022147299788322,0.09053500819794039,0.5897424848317706,0.07376453399799535,0.7950165600276111,0.14491523182557292,0.5979812328285905,0.26239476996045413,0.6947593326297334,0.27119800112476616,0.6834373261377545,0.3496665472342385,0.7443488781924826,0.24631808552317502,0.7362002705354277,0.9325981485473381,0.6831468721100827,0.18010290750051855,0.6092875838884548,0.07156734047449913,0.6424926437611138,0.25132666932769515
1,5.076859703992817,0.5448439050454164,0.469323597128228,0.037532573255054436,0.6256211245400125,0.23400855088667596,0.6739173157746039,0.026768753425087867,0.7324020842980077,0.151796567613623,0.7877524101883605,0.2725864660633353,0.7049175435326213,0.13309655803957832,0.9506592263226458,0.5358224566225642,0.6520891241584528,0.028370794295481734,0.7591481803672969,0.5414418577098103,0.8285661560765819,0.088748675367395,0.849673318747386,0.4168509573862824,0.7718961924412479,0.4782560444941756,0.8966234955079759,0.41138590908164563,0.5556865142798211,0.04298738677438225,0.6479139733876083,0.029355055492420627,0.5157788631327355,0.022223517099571117,0.5527408921050048,0.01967621721464966,0.6251625961280647,0.03878819052774598,0.6516813683955698,0.025366349113083393,0.7597205735905719,0.08186636729867612,0.5336971925099979,0.042802724453301015,0.6537389648205473,0.04646705130770008,0.8141600164544031,0.9502043205929532,0.491392385453969,0.039453375701611615,0.7961824740161543,0.1327072304863435,0.6680739638919725,0.16072440090981216,0.834454184684042,0.20177347365734802,0.6964064345160699,0.19226154906927068,0.5991300366300366,0.5935192706923007,0.21101448107369303,0.7440230154286616,0.13685301164330285,0.6933927709597354,0.11882017730956385,0.949102804916901,0.5035443861510303,0.7535815476090034,0.4902525542873161,0.8542420270488804,0.4148706363108974,0.7657819628352064,0.4714521251938762,0.9002884522650955,0.4509628223910614,0.8001054308548097,0.9454935540491873,0.6553156825860711,0.1646696911358721,0.8116722282179468,0.18210291008538665,0.7746386539467829,0.371821486330108
2,4.761991292026678,0.335394244714144,0.373176744970812,0.027074733360576198,0.344729619339898,0.11167468843420919,0.597617245654844,0.02389724766502792,0.5805996716599215,0.08364746704771281,0.8826523726639058,0.5289891295717081,0.7918780856654861,0.3262833737237183,0.8987290456996535,0.3703563923406802,0.5150303731742102,0.01997969814288099,0.6197137846316461,0.42491872290499993,0.8810761951277729,0.14160850777722164,0.733662598350501,0.27604058579404583,0.6469773266055668,0.4581555560370675,0.7822621831780981,0.22556803368813172,0.39491053472902593,0.029801392609629246,0.41232799228578726,0.015729675465154802,0.4723006168257855,0.016791238323416217,0.3797433401597118,0.013857794646123238,0.49249020626751416,0.0266788130915694,0.5162761756339647,0.016012835780555866,0.6262629194307195,0.0794816467328017,0.5753069983004776,0.05346527142724325,0.6538041564227736,0.0499037553483682,0.8219017207337409,0.9583850812867091,0.40637893777056666,0.030979423190873188,0.4112926436670842,0.04253577901526562,0.723603481591419,0.2570809879886868,0.841335655917477,0.1725174827232312,0.6065200232021616,0.17708945607842994,0.3656135531135531,0.34625106557952484,0.11141154324545922,0.5969548442374789,0.08212225100861253,0.7666882842664091,0.2957069834622766,0.897948415016195,0.3195804853265502,0.6145794567430044,0.393384455453494,0.7151146151620122,0.23388631287183864,0.6376709413597419,0.43766594581178386,0.7694027255378159,0.20479880819050036,0.8150071021925173,0.9569992591820725,0.6865496534907392,0.23597673838757133,0.8245444283180132,0.1702266822268485,0.6973374119912229,0.3128872241060916
3,4.5542443428464665,0.5801847187237615,0.43944315576068216,0.03785414585662916,0.33286887040299706,0.11284100027018422,0.6617991500723888,0.029202208500590653,0.7506610930448997,0.18625869464226627,0.8660714790338316,0.4473215355012264,0.7895384717751661,0.25753748423949896,0.8947474704906667,0.352644056746908,0.5759522250998472,0.028647970327302458,0.6386978730667144,0.4448613964371366,0.9112665006199128,0.25981603457437297,0.7445555211451118,0.31566495633598496,0.7566075389681955,0.5680057937190177,0.8982445769072783,0.46946658830024746,0.44697887710185963,0.03390275007629689,0.6549058341813812,0.03169382606284822,0.605592897661046,0.02885463085686548,0.5398679983724596,0.020065055823854195,0.6069349829039751,0.038851113149473177,0.6658056194395691,0.02923480727954592,0.7745983180191626,0.11755848405525508,0.594323662361546,0.05492532686722895,0.7428279758965899,0.1014159971545459,0.8337420512469342,0.9604248586107041,0.6336700876490265,0.10425561737268385,0.5528983225581034,0.058774664959331084,0.8140988450805016,0.31709508733677866,0.9052149918348803,0.31171360673355214,0.690070903359064,0.21181065525149367,0.6167582417582418,0.33582373058138015,0.11147689161139554,0.7622336947199131,0.1905815902748779,0.7796712329357419,0.20853519674383705,0.8959140869749906,0.3110480918654105,0.63243127984623,0.4036553165410542,0.7213318466946403,0.260776848831806,0.7513430510737733,0.555430340065195,0.8965610761870525,0.48644002925042434,0.8253891633547996,0.958233598577577,0.7977495217011554,0.30509973176533134,0.8803915001302519,0.27299028806649844,0.7526218349272663,0.3694789021448552
4,4.405378204767471,0.291657125410274,0.40400974949050494,0.02799347573105251,0.2567316175547215,0.09792730488702418,0.46190367096705254,0.016099664558981527,0.6889180271154712,0.1477010445274879,0.9110728654348392,0.6273019156468067,0.8435114732571173,0.4278011142908412,0.8672982457848786,0.33944432338934644,0.5251504428696563,0.022233213532127278,0.44160624933158127,0.21600557885943822,0.9107623932832837,0.17799004018202316,0.5358959428178719,0.14229248169450298,0.518375251225839,0.2824055374149055,0.6099121920429583,0.1356457721609005,0.3755181612591502,0.026850794635182026,0.4186081088202223,0.013952562773518706,0.5554758025835944,0.026247444154557244,0.42022166622081647,0.013007907235694576,0.37337469123938466,0.01826524718088838,0.5831965290806754,0.01966274156772245,0.6221179263564207,0.062406387995077375,0.5743535174734775,0.046852996118036,0.6548715504269156,0.06950066619620135,0.8491192285584894,0.9651954806403457,0.6130507704088083,0.18289197914606875,0.3545495983090821,0.033484377442323354,0.6799646154092521,0.2510146761463887,0.8681844459931404,0.27478682727358594,0.5895464716042669,0.17277635390300108,0.34294871794871795,0.2696500887565063,0.0993773593135586,0.7188033056814985,0.16210785260705957,0.8347600230970766,0.40231117306176273,0.8533972946423829,0.3033014203849352,0.4324509152716055,0.19204437761564444,0.4998076980364453,0.12419863918037964,0.5145161065984198,0.2786525861786215,0.5830757136051857,0.12462912767511272,0.8362337140477689,0.9619594815042691,0.6424988246444382,0.20170581660310838,0.8498251936205493,0.24668667753705933,0.6395471707274433,0.28154313742377374
5,4.248367735815634,0.5971299900770933,0.4140060162932141,0.037266444815839614,0.30347415600005057,0.10461122285171905,0.5034265726076207,0.017963797736984352,0.6708467208617636,0.18927971945381483,0.8589921421291385,0.49754901961283404,0.7647434326177012,0.4008203536892011,0.8516084712601434,0.25486082149714917,0.5112806063883276,0.023507873379853744,0.5132800772024827,0.3007422349451614,0.924752753142107,0.5605325867183485,0.6744919056817817,0.3327025565250956,0.6245484622847841,0.3615930496461488,0.7973405484126607,0.3032143782535648,0.41010722505978525,0.03192123212054507,0.5863965140956161,0.028174933394316835,0.5413061594154357,0.030559037468454262,0.4654754598813514,0.017611776031642087,0.4782618290017867,0.02453480528026191,0.4839216546631967,0.023876064947708303,0.7276510141763978,0.11446826003978848,0.5713740579922101,0.04970543276709133,0.6807935850620869,0.07582933579669152,0.8513092878633088,0.9654219821920957,0.6489473404962608,0.2764600060379446,0.4473150906384462,0.045770943393627556,0.7859228592450954,0.3719737174960009,0.8660392495580816,0.35108192266339294,0.6280597478529939,0.2145197595835287,0.6021062271062271,0.3096041560108714,0.10549503028197131,0.7120163142051832,0.2115748363616215,0.7596234228488693,0.3339448739442569,0.8524813492274199,0.2405746223975752,0.5115108079210533,0.2700836838282821,0.631773923109004,0.25913019151548755,0.6225197507510849,0.36459931962191167,0.7804349287344633,0.27594346610840315,0.8393986433883305,0.9608220135730396,0.7612955814653782,0.32644417493819894,0.8434919512568279,0.32201793818487395,0.6931046208107715,0.33369365006869295
6,4.129648362359112,0.5091214411113656,0.4372525594322352,0.04078402565801746,0.3535056085568767,0.11468880858166862,0.5197391149685925,0.01943677504512371,0.778293110907279,0.25723075810026563,0.9255593858320607,0.6667425778433524,0.8719659508387531,0.48614134152855965,0.9249780095591049,0.5702908041030308,0.5220829261968232,0.02350290974581234,0.6013809281545779,0.4091001750392392,0.9472921634624947,0.675117528628006,0.6851487717717442,0.3372220866357327,0.6540162227889872,0.5465282160800349,0.8069978870253958,0.32599481078071985,0.4091789713921411,0.030263065332262005,0.5074296861686876,0.022504597297957556,0.5965364508669591,0.03633658412679971,0.46669536593060174,0.0196146991548629,0.47156875306981016,0.027486226152248446,0.5865632376081825,0.024047788439575713,0.761049404493972,0.11600905889427224,0.5884458531484872,0.059622594213495764,0.7827278693994199,0.1434178876690386,0.879430721455623,0.9726219904192188,0.7187239831867931,0.2919034603150161,0.3474487299434755,0.03587458991623586,0.7897693412679117,0.39202290358601655,0.9056662160743135,0.41484094398399685,0.6607202675370852,0.2614573039729837,0.5707417582417582,0.34811043916919904,0.1149685783468713,0.7991269949766946,0.2609243941082175,0.8488660455736349,0.3987088415263421,0.9208379241225509,0.5380977949165711,0.6004080486835828,0.3780235603941341,0.6576051569907483,0.25461448091939537,0.639334316234561,0.5197552578349021,0.8051751901826866,0.3034024541529999,0.8639814465011273,0.9686581850050959,0.7540097141332026,0.3238790219267916,0.8738478905387468,0.36701726736856743,0.7373911970097032,0.4025499851363536
7,3.9853238731329244,0.6594916418594,0.43460195614223884,0.05001563087963802,0.32022347747448304,0.1108969264935921,0.5241686270433908,0.023207118124855576,0.760666277082662,0.276244275850716,0.9248033733988097,0.7644202289915687,0.8427801604460434,0.5431744479035392,0.8639928378070036,0.48970783512939137,0.48746177660143,0.022148211149619384,0.5236709295623166,0.3754804200271785,0.9075339847021877,0.37817611595477596,0.5531157398126834,0.288170878356604,0.6808320711772067,0.559511228845887,0.780225783403768,0.2651603971148755,0.37668900480224154,0.029807871302959584,0.5096973444411063,0.021330079603530276,0.5764835839132263,0.03821230028729765,0.45653222972299584,0.016696571428906907,0.42991911124398796,0.023021294357394976,0.47432253525388846,0.018445452479821295,0.7298277872688753,0.13480826727707051,0.5791995938628918,0.0547234763923696,0.7912522769667854,0.16256186522263702,0.8754724226133965,0.9711491978011944,0.6685384307018538,0.29376221237639605,0.35382097872979656,0.03779095558238185,0.8254254347313462,0.439510424107812,0.8985748437115483,0.4953969577988439,0.635178984171043,0.2549455792904021,0.646978021978022,0.3280709249731725,0.11205178219104345,0.7786933136661944,0.272292267418521,0.8277921176916713,0.4440190633809267,0.8587262053310678,0.41281079131940246,0.5250816480871567,0.33430415984978507,0.505424351652467,0.21207583832627802,0.6568077500834539,0.5226092767263435,0.7645966490438991,0.24483361912646134,0.8562012760266484,0.9656588830772239,0.7902582680046019,0.34423884122674886,0.8690358048122924,0.4187408801575938,0.7055171190338752,0.38942140025457533
8,3.876456398443815,0.690176322418136,0.6042900548155589,0.1289257086099782,0.42453508284896485,0.15380117550052388,0.632287734019209,0.027627086837732906,0.8991007348209925,0.4137399742339722,0.9485757405684911,0.7534913596297791,0.8896510247185933,0.550792323201872,0.9253121265843485,0.49841694236453205,0.6849142878826688,0.04173061184233243,0.673214308337512,0.45478369980663697,0.9671176596689821,0.49137097382826783,0.7538630360720164,0.432508876019418,0.7616216194357424,0.6357852426049481,0.8396632825240614,0.3620636513611283,0.5140727240582859,0.04325838261033549,0.6180039474431614,0.0277424835253677,0.672066125224745,0.06692896204371324,0.5610574966898435,0.02826436550091633,0.5377804353139096,0.04081699430045413,0.5416379819040126,0.032364278388879675,0.7452117943735846,0.10981119095462533,0.6052577609002256,0.06393715952858472,0.862701430465942,0.23610240489135495,0.8810505436833511,0.9726960347834728,0.797427319954646,0.42536570180938016,0.4209337281488205,0.04238060631531647,0.832948877664495,0.45060494280976165,0.9482465615621517,0.6552205800597471,0.7237979044327524,0.30150117456900116,0.6474358974358975,0.43785580327145457,0.16523933239254157,0.8982269099052895,0.39327129642649045,0.8498883928571428,0.4450727644671735,0.9248816903839006,0.44195411816227376,0.6617486573510889,0.4086371580527774,0.7233032742933501,0.3489389441105576,0.7391482140870146,0.5994511566277135,0.8232830952944581,0.3284706739653652,0.8601037477499401,0.9673489196285115,0.793473848271893,0.35213863910459536,0.9188075537857829,0.565385259196679,0.7846110170228467,0.45599166019406173
9,3.75255774554474,0.6153728722998244,0.5970896173273497,0.1534841569445037,0.34639807884238205,0.12010463500756624,0.6478718140523513,0.035584799477316784,0.8875612100262227,0.43172991616081646,0.9594250349254881,0.7839545871291951,0.919931827310858,0.5749557524425541,0.9236535881398192,0.5801704159421017,0.6010035322056838,0.030543292031285158,0.6835756104001355,0.47073523213713064,0.9680286331199183,0.7964577425700551,0.6901012521678282,0.37317590889933205,0.7237651322643189,0.6043967942753063,0.8542522080474851,0.4238952631573121,0.4468279490323527,0.03457960682140443,0.718239438981275,0.04921479355233087,0.6959299412380996,0.04421663376597618,0.5793369795635763,0.024883127595646107,0.5711550553692908,0.041841640532185934,0.4989276311807783,0.01979357166480167,0.7902371944045201,0.15614224289115156,0.5974101194708787,0.05794682608520976,0.8565544626863912,0.18053788791518294,0.8568554374136974,0.9678056875211378,0.8462387916866723,0.5163232702922887,0.5184962183413473,0.060777712277540426,0.8763352805493426,0.4833305754703898,0.9479495750162739,0.6501300176945642,0.7260426523616421,0.3209893366760847,0.6346153846153846,0.3521537242631204,0.12183522368841508,0.8797532668029086,0.40494041488537275,0.8881062982625483,0.45248022158600926,0.915350548239792,0.4922221360727238,0.6620283087609279,0.4134101645901661,0.6427572111906444,0.2768009740148063,0.697971514409703,0.5518184443348593,0.8346876269467605,0.38965477268820486,0.8333762610080341,0.9615861090357943,0.8318383095846434,0.37734489981678665,0.9013817043570308,0.49415305624838274,0.767218615802374,0.4487496742692292
10,3.6725873141404866,0.5247691015952981,0.4851094750141489,0.09029973039923578,0.3618262415232175,0.1286009297956718,0.5961875857283598,0.03276290249348829,0.7784273104518762,0.3747628676493879,0.9661274574364616,0.8351700899165885,0.8951140989869011,0.5594710030580964,0.9269945065452518,0.5508756330870258,0.48092861908782447,0.02418574885965278,0.635003458896051,0.44742911551472037,0.9266907265024321,0.28047028446693706,0.645842885809015,0.31868016818799433,0.671010956728342,0.5520194759885665,0.7341390348394814,0.2624540385387924,0.42779075459681865,0.035787024270879965,0.5923072422031496,0.029535364382511968,0.6481229283951544,0.08173525417833152,0.5098383025022311,0.027098110059600854,0.5581782115256393,0.035743633565631816,0.5253071476124191,0.03221848666699964,0.7239087892970543,0.11950779310953946,0.5895248229454019,0.08080391182390448,0.8397933752694025,0.2253398297815225,0.8920482969741909,0.9754781251293103,0.7648800614676381,0.4472261442229208,0.4213375577078817,0.044382011058910445,0.8397209206350255,0.4942569896033968,0.9430241364469932,0.6073950307708529,0.6807105520417912,0.2849514702437212,0.5347985347985348,0.36723851932083723,0.12802314762100742,0.7974630087413699,0.3498663967786302,0.8560655681191397,0.36898138923167517,0.9100714171932246,0.4386205069399247,0.6227893655763381,0.38678532999625237,0.6077018665259467,0.22183255488774847,0.6452566206743073,0.48927871364880565,0.7142206674440559,0.2437436639027589,0.8646135215982064,0.9683455187824093,0.7909803294418679,0.3565614614130432,0.8964290292301904,0.4972547755823587,0.7338936285332257,0.40448122352587396
11,3.584810415348673,0.6530035875124036,0.6251353450085425,0.1571076578952456,0.3349611801615636,0.11526900084018793,0.6875447397737138,0.043678771658264,0.9018558713693605,0.5264174434527173,0.9745989755875247,0.8037054426813715,0.9494002231977953,0.6628819771686644,0.9622731089354141,0.723135708185854,0.6822404682623256,0.05033811312037085,0.7248974405326796,0.5356513400783767,0.982975271999169,0.8572349727191957,0.7640743816524732,0.43342605902041087,0.7707522419407871,0.6700132024566217,0.8116374436196832,0.3421860375143567,0.5333402030857298,0.04584559656635743,0.6783085329239891,0.04416948030547982,0.6799583200473739,0.0773507735791595,0.5573923459138017,0.02775763210363296,0.5389632761725786,0.03177435149669275,0.561991996005568,0.026456407437814487,0.789359967882821,0.14517553833781427,0.6218814772228695,0.10570417368234658,0.8877076231415654,0.2511206210244332,0.8875965131309176,0.9746051228252686,0.7998944753143633,0.4922713577399362,0.52417901302484,0.061460764290523606,0.8497546329352964,0.5022267767238369,0.9339983878857983,0.6566420794067958,0.7413582761751314,0.3468002371226567,0.665521978021978,0.34814734582944706,0.12070053439486225,0.8884833170359624,0.48404517666330665,0.8891652733728627,0.4425022456151714,0.9446989659109009,0.6057136688178142,0.6976448227672758,0.4619027012232164,0.7112217637946736,0.3129007760655588,0.7259917102481361,0.573088050936936,0.7929450479438643,0.2939661388059698,0.8589718415098107,0.966137257085324,0.7973440975756385,0.3747249271554138,0.8913905532192905,0.531518193603887,0.7769095217461693,0.46974542457886004
12,3.476438159296944,0.5420960232043356,0.5541076130653934,0.1104564947293807,0.3762921465597413,0.12106530359065593,0.6729579266802027,0.042098683969507576,0.8164058700074674,0.45247527281339134,0.9703258804502729,0.8318976772630793,0.924573627140304,0.6174321206061989,0.9459969086619755,0.6332580946247655,0.5823247415671355,0.0329010738142282,0.694521921529459,0.46098316307563075,0.9592647679581333,0.5252425162288199,0.7028244044591643,0.31599483847342785,0.7354722019250719,0.5711051339653909,0.8196216932231533,0.34614148197902056,0.44682275904882,0.036259776228071514,0.6552167090177313,0.034378603352396286,0.6503000393889619,0.05237093339498443,0.5541044818059405,0.02819355805564718,0.574675341623897,0.033391111766673295,0.5900271591115415,0.026724686781218705,0.7696153759256716,0.1583198335986609,0.608705555639607,0.1294467894637772,0.8539029864704781,0.20432787887992745,0.8780009510148108,0.9725508594962877,0.7931973259219327,0.47014963652834973,0.48049623689341503,0.04765711297955164,0.8656539835413856,0.525831309008434,0.931122960701959,0.6046977744828597,0.718760428493838,0.3105685821907532,0.5235805860805861,0.3866421959462848,0.1269252003272814,0.8113234655147343,0.4230271203070023,0.8677336855350248,0.4311542415893882,0.9382383980247437,0.5416846298486219,0.6708278939625669,0.40233430191695707,0.6524893396089912,0.22313561471726734,0.6981272949816402,0.499899316474926,0.8109582635582794,0.31351744789984953,0.8447966011482273,0.9628394612838926,0.8029387365636401,0.3481830058757427,0.8805196845835452,0.464259460625637,0.760417778129789,0.4306327091696879
13,3.3959227277981254,0.7072742538737501,0.6727943911699918,0.2682384112236369,0.38935290650481447,0.15265734911139575,0.7228662879126123,0.06466865555309367,0.9136829413498024,0.5768719395360389,0.9553514650721999,0.7457910610599877,0.9161173564417907,0.5931887316455624,0.9024924374542163,0.6225089252385956,0.5782185919875535,0.05601859928271555,0.7139608883970485,0.5128330098807636,0.9693802861101963,0.7914025977221372,0.6968335786518403,0.35428016710107085,0.7919784106755856,0.6732925248600804,0.8552543310943266,0.41845665999094833,0.5104021500595006,0.04837149359170255,0.6567816909264241,0.051507749422693,0.7211919649197082,0.08477969963805801,0.6110178197701212,0.05043488719856576,0.5616360931371502,0.036290634364167844,0.5687117956787509,0.051720799013814836,0.7848319322619497,0.16016741482039837,0.6493812965120286,0.17161150175498838,0.885238557030751,0.2163192489652651,0.8882593143966055,0.9743319191800581,0.852966317909,0.557285649337117,0.5186437330470818,0.07857778560875672,0.8642075684101884,0.5076724756555546,0.9225179335067228,0.6101726342818317,0.7434841496439984,0.3492389824088518,0.6371336996336996,0.3933423594187201,0.14492455712034466,0.897823756777631,0.5140997221374843,0.8565320342664093,0.386579299298526,0.8990900281420913,0.5170120034594169,0.6877697378210508,0.42971598245277476,0.6491444025499825,0.25215491592594264,0.7450628685879603,0.5736899468854291,0.83345754023573,0.36228654960013496,0.8526824210625638,0.9631403549481319,0.7929742887293698,0.36512004740131243,0.8593372036768264,0.4823403342517751,0.7697469673880306,0.4537330648619339
14,3.307366725534221,0.6981909777879551,0.5561639438240162,0.1626258167578183,0.3870868795946428,0.13565480512905753,0.7162645637570139,0.058507639257849915,0.7965323545153129,0.44223052174127403,0.9361188547282955,0.6542477538742499,0.8954368233307746,0.5238293415053915,0.94089205384086,0.6078987694784939,0.558566468395139,0.030775934089659986,0.7559832599334819,0.5357816581530438,0.9798916202376664,0.834839351994721,0.6764463347530921,0.41428278045291783,0.7908512578167358,0.6927301194762537,0.8041212625058771,0.3874736484175334,0.5194618522816842,0.05997059303550123,0.6005655287199074,0.054539297641768764,0.6912628851476817,0.09336752737572307,0.5179213040705747,0.031133467141128208,0.49248261330713766,0.029621378415808947,0.7236163227016885,0.07367286017370513,0.8027284829672937,0.19809480194275808,0.6558750355117815,0.17783459205439037,0.8684401871788865,0.19248706767722265,0.8689083734247336,0.9706308927203324,0.8439235204764397,0.5405776038647927,0.520877067041762,0.09544484585303926,0.8648657271768107,0.547264851278365,0.8999521259985812,0.6261846180990563,0.7283421001199213,0.33969268657784657,0.6801739926739927,0.39268606272126444,0.13786841044010809,0.7747688835444736,0.4296358389782273,0.8184821859487038,0.3595603980445667,0.9175823355280627,0.5093225162271143,0.6879743757698851,0.4192862365078952,0.583659599458682,0.23551187054592962,0.7379770780015579,0.5683176777025194,0.7694065248077716,0.3295614945229996,0.8343198197984865,0.9616018750040809,0.8038089543106266,0.3760593939444888,0.8205593390644188,0.471356158896682,0.7401113780867212,0.4361892609831466
15,3.1870913534034857,0.5871307533776048,0.6643114974505319,0.17203712335643273,0.3811574736850355,0.1178568978966911,0.7057773412168048,0.06115885535766356,0.8737039463421139,0.4546244196496977,0.9581731636266607,0.7013945449957789,0.923582764942192,0.6275292350187592,0.9537998843854354,0.6173069949050694,0.7017964602049755,0.05435380667555076,0.852754550729693,0.6079971114973908,0.978343937783298,0.8161099901991133,0.7274176791744325,0.4373467299918733,0.6938436799028971,0.488718156803117,0.751141100552049,0.3339871966084076,0.5247133622320546,0.049480685510829875,0.4667404987274149,0.016908430676043966,0.7203490880249518,0.08628392401213789,0.5613407426889937,0.031066674591699473,0.4755032115849593,0.023265712792772376,0.8354248623131392,0.1103880424316842,0.6712813676912996,0.11338442051713798,0.6205165640397194,0.15142110505982656,0.8405929465845919,0.18164255845423283,0.9054531686084377,0.978872381159223,0.8920707139848703,0.5407186240034706,0.41671062046617735,0.04587833995392659,0.7775748842018303,0.4651407754745775,0.9128446164094199,0.4702914778958027,0.7328488936131102,0.32426534131440404,0.5453296703296703,0.3879287139834121,0.12066937997559639,0.8635113331307409,0.4472168511436334,0.8485396269994484,0.41143431378080547,0.9329542890139648,0.4919465006494312,0.7924142829311395,0.472767317832158,0.6514392591772986,0.2836251601644011,0.6500614776899967,0.40578308429492493,0.7340256772198697,0.27405244407594415,0.8611770003355281,0.9668005719340119,0.691323549311715,0.27642155957717846,0.8493491537758591,0.3519002154431938,0.7511567603244522,0.40932885444284356
16,3.1181604434639323,0.7545225555301122,0.6256745661652756,0.24485097999895375,0.4036152137927767,0.1618330137870131,0.7065165996454488,0.07452310886018791,0.8727191383496047,0.5385743937987431,0.9498129685954054,0.7000506836744504,0.9076949666010575,0.6602842233172158,0.895286926773133,0.6217425302878741,0.6139296025398995,0.059896335563047146,0.6752767679550532,0.4915255178709623,0.9728982083304788,0.7605873908617037,0.7672562578876866,0.48672098169375144,0.7351429214893783,0.6463199384798402,0.7271854140057559,0.25875984392647267,0.48063625514896596,0.06842630012357556,0.5113073236431178,0.04458183496177847,0.6844270915672787,0.10162381490498157,0.5769413778194404,0.08251296217118707,0.5055210313138432,0.030765724259865145,0.6011321339950372,0.07889918732318328,0.7563863307339506,0.16027692885541153,0.6485638951507295,0.2770126060395271,0.8770738091105633,0.20779388985054298,0.9020613683205674,0.9778441765943717,0.8722656759180354,0.5254722806499874,0.4041853980281729,0.06465173967609748,0.8306990479801897,0.5718268538077002,0.8895850552234132,0.4741285657738179,0.7182887165216392,0.34709206693008304,0.6980311355311355,0.3893091033085617,0.1360106290683547,0.8613431878005688,0.4839458020491943,0.8277307122173193,0.42123477976193696,0.8716041987468804,0.47439766412466133,0.6269293722953353,0.37839409407962854,0.6851833331914785,0.29858691952312627,0.65836541671303,0.48600728642725144,0.6772549397815711,0.2057702615246674,0.8597505507432438,0.9659630025384196,0.7377772381631399,0.3171157773044046,0.8059948974317624,0.37676049797587535,0.7273857227629901,0.4131078831252291
17,3.01160509989795,0.6744523318830624,0.624212175803036,0.2128863328432232,0.4010729138222209,0.12454352470543067,0.7285560160265371,0.07258825780334102,0.8834325510877988,0.36924484792976736,0.9333904106949662,0.6288820048683543,0.8856736321796228,0.5699463221476169,0.9029560038394916,0.555145592932119,0.6750370770918911,0.06426507063958281,0.8208101488904105,0.5970760475855393,0.9638547746545173,0.7551126982222152,0.7329442621167924,0.418508445989158,0.7591845771520346,0.599893419133684,0.7728968103161404,0.29512828188641405,0.5517307423149738,0.068631783353777,0.5435850968964528,0.035568674240545974,0.6794415073914594,0.08267221093712375,0.6021495224157737,0.05895425607334426,0.5067980723371844,0.026859001417845564,0.7526007307994916,0.10330336004897918,0.7078539363530665,0.15770230282401712,0.621138713641399,0.16817330373630746,0.8792306084998897,0.2283147663573452,0.8940269765263265,0.9767263903199686,0.8562332599922576,0.541214053214232,0.4527216012289715,0.052809523098018854,0.7916951952331898,0.49362901103297163,0.8875217742263471,0.3628206834530122,0.7337314478345275,0.31928148765903464,0.592948717948718,0.4039052862773415,0.12642882495132296,0.8690457635398063,0.3300444330290314,0.7914594680777716,0.3376378017493377,0.8790039425476558,0.4248222082229615,0.7634489624671912,0.46892059216130644,0.6599042692631776,0.25766794831321166,0.7013881161677981,0.4775512928852179,0.7330036736017957,0.24208828470173882,0.8483453294022026,0.9642067869193867,0.6887920553986928,0.27295210006055737,0.8029732590690501,0.26795674379895335,0.740115465982953,0.3791160924357296
18,2.898754177198329,0.6904816426227005,0.6436071985609254,0.2109768236000632,0.3800530048836741,0.13776201260718587,0.698421719851797,0.08925988560069967,0.8705218032032438,0.46458796697493016,0.96087917176969,0.6434295094263704,0.905299333097513,0.5119177521103722,0.891209439830141,0.4976382045262916,0.6000951829821681,0.04049296868105689,0.75181415994936,0.5352443934990235,0.97879235241987,0.7949295354274204,0.6915112124847822,0.43309696369719675,0.7008010142042724,0.575764919855656,0.70494510695231,0.26546335086975315,0.5312323163867536,0.07911493215374038,0.6500912948886496,0.048380996936713064,0.6391261009482825,0.09767070748675832,0.5532082854700048,0.061739446947966764,0.5584770657004625,0.038058227503480674,0.6406021152333112,0.055224021725024816,0.7667679307881744,0.21368960324586075,0.6289495404901551,0.20027209409604319,0.8838348838894384,0.2565036061987011,0.8914278656328349,0.9764099211746865,0.8501976049630009,0.5684220668459573,0.4693125608578682,0.07281445059287667,0.8640319962466368,0.6106675297165933,0.8962215843617569,0.5036769198259945,0.7259789572610029,0.332711437456534,0.6364468864468864,0.3781809429250534,0.12609865503028173,0.8482907787647145,0.38231562498991906,0.8426043031232763,0.2954115602390879,0.8684722295969841,0.3583188912651759,0.6903073097473013,0.3971342568437646,0.602604135635921,0.2556373465036963,0.6422560364971626,0.44830529515316975,0.665183782377817,0.2062483092138287,0.8495242314276481,0.9643365165924667,0.7542990735684331,0.3477559812008153,0.817847824379029,0.40073506715295104,0.7235973316403036,0.38020886401683246
19,2.8204990064503628,0.7731470880085489,0.6609883208052014,0.24811264496657098,0.41718013644789786,0.14937000984644414,0.6784236814484195,0.09059038980191039,0.810653683991953,0.445607992549639,0.9475172289654538,0.6460221615793402,0.9014343467256903,0.6348135766369408,0.889669227502969,0.6132629828770539,0.6423463079438262,0.060618954587010096,0.704681612750397,0.4698096310752038,0.979105071350747,0.8283151088473317,0.727638889170453,0.4710677895640639,0.6774838190495832,0.560260751286335,0.6475560490951838,0.23476218102465793,0.5261958559153423,0.11774116686285345,0.6025570439070926,0.042900947036325326,0.6828568921305141,0.1363421660164018,0.5926596574521797,0.07969321828866918,0.5117769188241351,0.03242777836358371,0.7319153604067058,0.09532548116123245,0.7722232456773023,0.22020386875943268,0.6522511527670611,0.34972328007180886,0.8786269279442172,0.25335291749246913,0.8712306089158742,0.9710970555353936,0.8261852531380657,0.48836065896040465,0.4921017792206019,0.06733205627421662,0.8643442365938964,0.6578230394377741,0.9240911579809878,0.5203498039362572,0.7264331283748796,0.3513069486236787,0.6778846153846154,0.4005339430955462,0.1384297592500374,0.7991740149959031,0.4066380914380594,0.8008329598731385,0.3389770547126959,0.8355122988902458,0.41740067360178856,0.6428098293712214,0.3464048908326968,0.6224104399485918,0.2523559052238806,0.5996711917213753,0.40542722172671536,0.6020264721440449,0.1682286924387672,0.8269134297560554,0.9574652373211991,0.7548922336676389,0.34284750850287,0.8233845657648269,0.3968338491565485,0.7007419435662353,0.3791826258368417
20,2.7344395181767114,0.7098694756125487,0.7242517330803794,0.1960451833351619,0.408782130102702,0.15749751204300982,0.7543059973620917,0.10058711522088642,0.8696792423062761,0.489755620737299,0.9540456448768501,0.6905724172053774,0.910462739129137,0.5869619143876074,0.8892907434305289,0.5109504641695598,0.687133537613089,0.059394363213393184,0.6736199898660808,0.4728589730996278,0.9801329552712478,0.743997956198307,0.7121444108939305,0.3418768514979409,0.763230646861625,0.6432586554434296,0.8302675638189224,0.3929160022567827,0.6425505989910673,0.13321271555731903,0.6697698260127469,0.04296721600546713,0.6774154544066067,0.07922106229452502,0.5457768246325108,0.03849423441382935,0.5404462762461353,0.03254289793877264,0.6922002662954669,0.11048233081117671,0.7956574028533543,0.2461552231676818,0.6644016453932184,0.32326599681961155,0.9057843381756968,0.2611680048177665,0.8589842707478206,0.9675834393030851,0.8822423766438696,0.5664958397467099,0.5121937330599652,0.05568528741996246,0.8564080691927299,0.5810250270917828,0.94149508656727,0.5781463755839458,0.7534323519937526,0.3482636548066674,0.6059981684981685,0.38636900642857863,0.133550269912602,0.8415468889726735,0.4278456740817172,0.8101445075496414,0.3251710664548557,0.8380676538522805,0.3635034333676467,0.6005599164267208,0.3466297707821311,0.6136294482130545,0.18614596560421504,0.6788475019472571,0.4824164947046511,0.7695023833112683,0.286686929800004,0.8182337818091338,0.9547346399396051,0.7472774272362643,0.2918719324952541,0.8411887660799127,0.42906751311664676,0.7223061165297079,0.38432942638721174
21,2.6561785078660174,0.8074192809709182,0.6550532345962434,0.2100612546131552,0.4578321987612778,0.2280818867505565,0.7029677932184385,0.08333064026375604,0.8268007854409722,0.4903522407532378,0.9590765079273195,0.7562418078099469,0.9172443536388531,0.655173112258585,0.9095279933821323,0.6063323478170521,0.6618461703870246,0.05947053566962853,0.7477154629856322,0.5855954524587664,0.9511780553081552,0.7267431639304275,0.7049826329284257,0.47579258723122747,0.7249193790969526,0.6676702497762411,0.827826079320935,0.36747738504743177,0.597328012316668,0.13860225411630248,0.6616578234723675,0.04672180455226016,0.7147455392670439,0.08829955736177053,0.5850303740121048,0.03294523267000904,0.5390399176163799,0.03585456774779516,0.7389449555165527,0.12177638717146387,0.8352868387345693,0.2469908881275973,0.7023240254642588,0.4050094037213874,0.9113082469588485,0.2669516848027525,0.8882493450026452,0.975262705173148,0.8835008453110292,0.621639507578499,0.5082190813685964,0.07915675673542155,0.9169565670223586,0.7056571698117583,0.9555405396400636,0.6004239783603804,0.7587075095813277,0.38065239119668737,0.7344322344322345,0.42681830490116435,0.1570721411762881,0.7808684249251381,0.4373845279970702,0.8116704874517375,0.32029811814557047,0.8652548053947857,0.4399541346993082,0.6579536511920083,0.40755321765763275,0.5984817454102868,0.25647067518012795,0.6287384555469011,0.5047876451842364,0.7803063380590407,0.28509077307936465,0.8476403926224632,0.9634701136399567,0.7808602372533424,0.3640908131354956,0.850077944417567,0.4049792428193803,0.7298791624704033,0.412831945701312
22,2.570978224755207,0.8484085184337073,0.616487961435142,0.22976525464940975,0.48371213558363174,0.24014494961479477,0.752389049020885,0.1282620265635329,0.8882624966085322,0.5489301484711607,0.9549948029229685,0.6955331305301523,0.916753753925654,0.6384945506262055,0.9323004611990234,0.5875765248585293,0.6888528395202272,0.0792207872811686,0.8432730050671525,0.6505955831778267,0.9604442597843456,0.5749316689685738,0.7536509785650494,0.4449829638829882,0.7583849938579734,0.6704468238897312,0.7170410568927742,0.2358826222598872,0.6413592466420805,0.17485645520638157,0.6700269778449068,0.06344429111589117,0.7050523712423064,0.12164129582543867,0.5483013107995405,0.040328177899892625,0.5883768386234912,0.04607135346607581,0.795976820190038,0.12586623910733497,0.8085946474844151,0.2863139776673773,0.6960742881253645,0.3772340635506439,0.9157105231673472,0.22561399291182996,0.8856295190159652,0.9744661784310652,0.9334308557848947,0.6396895793904123,0.49666616765039867,0.07025407922031908,0.9071696948204347,0.7071706564258584,0.9460363957299193,0.592807552512688,0.7705538315372024,0.3766861084261175,0.7415293040293041,0.4429762012215302,0.15859684600603313,0.8636680665281028,0.4509935878100076,0.8163222214561501,0.3141129245477404,0.8789433773164127,0.39392793074388377,0.7547719452723878,0.4696388626990745,0.6343496523137943,0.2575429409796191,0.6677160064537666,0.49119032686803793,0.6830841888997022,0.19810871002111594,0.8404012201417378,0.9597916445663902,0.7625706884775576,0.36609761064774077,0.8463657640000166,0.4219907330444525,0.7446517574619236,0.40745382890309967
23,2.532057216336514,0.7920006106404092,0.7609360427577301,0.2771173857930397,0.46579388604689237,0.22855153430043476,0.7649988947720522,0.12771010654539594,0.9050587082106599,0.5821744306880776,0.9547425704234337,0.7034355297749436,0.9398617220673733,0.6558945531726612,0.9133467075285633,0.6374192793178274,0.6866512982516056,0.05468634535230731,0.7720114504668528,0.5967683217564868,0.9654977093062059,0.6555041752399414,0.7660305398585234,0.5264216639183898,0.7604483663826932,0.7012636951812025,0.7517782018447947,0.26698986799541075,0.6699393140248088,0.2297240477825148,0.6917745289998145,0.06720691945519827,0.7140790083627858,0.09775615850574186,0.5885391025597795,0.037975657188638566,0.5529478482262132,0.041712361185804625,0.7961568722386976,0.12060120164145538,0.8181239604930891,0.2873682689882574,0.6919629904198039,0.37406987477633125,0.8927251648431274,0.2678705558549183,0.8764375130644004,0.9728684592659175,0.9010899304820925,0.6002738666834546,0.4824939338603323,0.07514266200460101,0.8818777071577333,0.6814928989500675,0.942658331742129,0.5706642648188046,0.7743689742367479,0.38661718837547493,0.709478021978022,0.4344531696603183,0.15096643761158296,0.868380517342115,0.49793007195611855,0.8271231212079426,0.3742739259531747,0.852131232411193,0.4237266822994934,0.6850959451312583,0.41076122878955434,0.6377275706224307,0.26258431585708975,0.6690188605763882,0.5421116816080371,0.7181005988233953,0.23497924760038613,0.8373464940962001,0.9599075633697993,0.7437724875337429,0.33353026314495504,0.8446631850115159,0.42548997282861084,0.7379830165833183,0.4196601264562548
24,2.4032161694411585,0.8492481489962598,0.7382862631625096,0.2618941500808203,0.4571050003286421,0.2293233617290661,0.7082615423126638,0.11097405282394379,0.93768878581735,0.6295452749318291,0.9663849563758948,0.7071024115792461,0.9482646640511133,0.6783173617387457,0.8757419202863937,0.6024658599585128,0.6811993055753195,0.06949757922772581,0.6990130039957533,0.4797031166935751,0.9861254455968512,0.8823063719802645,0.6432911301231132,0.3822192456596695,0.5873728395199981,0.4361439621522155,0.7606849327981617,0.3420865513381198,0.6956655601398549,0.2454884366831494,0.7464251960205284,0.09108214497347587,0.7873004426569059,0.1647241945261853,0.6488734976909457,0.04495940546315864,0.5211770037703793,0.035077443577354095,0.735631770864855,0.15222721954500004,0.810265157900774,0.3179266274717263,0.6963103048886065,0.449632739723673,0.9163691795168196,0.2708793925786761,0.8515087574588636,0.9673108465376221,0.9079698321233911,0.5788057167962825,0.4723950384556022,0.07142484306973879,0.8877478684714201,0.6978354977833233,0.9641837672324002,0.6538075648259678,0.7641201173013003,0.39084301383144693,0.7097069597069597,0.41951720472164555,0.1507124928344888,0.9149660367435327,0.5303101940736218,0.8410513909955875,0.36926923661235483,0.8005387816598524,0.3777681129577249,0.624180105939256,0.35570227669776283,0.523625213846167,0.1941006111094124,0.5242501669077556,0.340047710356163,0.7043308754979236,0.2427751168674227,0.8132693510610665,0.9561217692534323,0.7338914779100012,0.3315598488822048,0.8899381406638301,0.4988489356663849,0.7081417041769652,0.39520148230099755
25,2.3485033673627185,0.86810167162812,0.600642548352212,0.18085645238126577,0.4171644613806421,0.18348875943157425,0.7115907670281958,0.1221390542570463,0.8452662006043975,0.5261646088463261,0.8836611742122905,0.5444274194269486,0.878507647288773,0.5961018190318248,0.7785369519158589,0.4750192860605984,0.6408312857924379,0.06651953592233989,0.6431304337256931,0.4922424247505399,0.9265817721328758,0.651486479037161,0.6589331811058758,0.4170226055556453,0.6874238234729622,0.5634469481023338,0.7429495952962135,0.2738224103018236,0.6219540656321969,0.25358917265480824,0.7081703108200867,0.08562964757948355,0.7082260966610486,0.10920655496087983,0.553135225986097,0.04217210300586952,0.5079317962334171,0.03282216626226486,0.7291669188404044,0.12144885322545329,0.8500558748542302,0.41445431493109997,0.69392559420246,0.39904787684057225,0.8912610393921573,0.24878200883418175,0.8490845399704874,0.9667765364853771,0.8770645600157729,0.5486827751634683,0.5057423803179051,0.09150385674335365,0.8915093301706505,0.7099478826686504,0.9035785787338332,0.47991619847275446,0.729852820523673,0.3554339907753202,0.7202380952380952,0.3730866203327617,0.1251548932858158,0.8386551577913478,0.4502533717092986,0.7676653854109211,0.33038578418088305,0.6795145157436415,0.29031861814625626,0.5462639768179259,0.3268070821813461,0.5318295656688597,0.19894754567556616,0.617928952932013,0.4157950083887497,0.6983286134710424,0.22323246339654176,0.817166722466572,0.956679224630131,0.732582674697416,0.3448824131687317,0.7942918635952018,0.3568579390689423,0.672483095357064,0.36539221307566017
26,2.30504919771802,0.8606213266162889,0.6630549477485232,0.24518083453346817,0.5152476990159086,0.2457167495573479,0.779443528707381,0.16160479001927788,0.8581016464051149,0.5335745703967886,0.9024904523298131,0.6079060724527787,0.8938087074538377,0.6344235867026115,0.7221233069795032,0.3859209844391839,0.7236034822425238,0.10080266947908637,0.671961266409338,0.5123280440204376,0.9257817420764979,0.6664709144762428,0.7821170380947463,0.5452475609073194,0.702445378891026,0.5678154375013112,0.7391422895925767,0.272462533267878,0.7523036830132174,0.31288897773468677,0.7950386976722541,0.12089576466537108,0.7508567769111015,0.14069270824455496,0.59846545110672,0.04955140620689,0.5505131180254507,0.036726247966311715,0.7040205319857169,0.10981740560617345,0.8474541747987897,0.3631442262713124,0.704083896899002,0.44227175001544716,0.8963729456746478,0.2938471840306413,0.8615059962636018,0.9697141849259181,0.8831993696029953,0.597126860888294,0.5530746316190621,0.11136738706693808,0.896226002234366,0.6838218267069207,0.899761181457286,0.4454808264340639,0.761933257155963,0.37617783350063916,0.7557234432234432,0.4621427926708187,0.16284337636776625,0.8483055813633541,0.46572550913116934,0.7715780991450635,0.3239827091332555,0.6268841594541497,0.2156991167353206,0.5830313108333858,0.3587163844636293,0.6759677336987514,0.3211675315958542,0.6357542839657283,0.43211723437091065,0.6983046488451681,0.22621208986309102,0.8267046810352334,0.9579945052630061,0.7415619098150614,0.3425112840232844,0.802806826028887,0.3745129568638456,0.697549275168691,0.38013479071010303
27,2.3049096836132743,0.8466529272574612,0.6673143298977289,0.20911369666249624,0.48241907612934853,0.2652259123830204,0.7771951949666015,0.16368992594645265,0.7676569900320027,0.42814512602302635,0.9240880795374575,0.6221741834683526,0.9014926902966691,0.6317027790351288,0.8001486149170324,0.46400345556848105,0.6671324624564798,0.06102512732606864,0.70155815598171,0.5351569865960604,0.9470640885955938,0.7163644177198398,0.6547582747146719,0.41784067807056946,0.7234342809380674,0.6443350384918614,0.6391904103519873,0.19108434434844285,0.7191736742605613,0.28155345188061714,0.7626793133584131,0.09164290625100162,0.7237249498259651,0.15663775773249808,0.5913532040143001,0.055986101692761144,0.6226804099249483,0.051165499063216664,0.704794074925861,0.17393176578215963,0.835000773384452,0.40390740625947763,0.6882472393267134,0.43159871458310206,0.9036920984829209,0.3088532747286897,0.8780955581120058,0.9731210343675897,0.8596647773533937,0.5364654293663643,0.5185301660487368,0.07855259371772721,0.9035909870877905,0.7128837432946047,0.8947181545979837,0.48531093047222,0.7503480751673851,0.37375823262340113,0.7451923076923077,0.4253103469025484,0.15099783960540525,0.7461572018560718,0.37897496576030043,0.7823068205322669,0.33695002844405775,0.7218844581320023,0.29300388057209714,0.610293258146017,0.3514006315393432,0.5429697806640508,0.21314534078871564,0.6243971848225214,0.4531533757801231,0.5990414149650322,0.15396137755345451,0.8380357656141675,0.9615235926594122,0.7517509989853699,0.34363318887252275,0.7953814314481948,0.3876333445073405,0.6761389692789312,0.3658525060075247
28,2.2096622004580673,0.8687886420883902,0.7247522605107439,0.31767516205045687,0.5153426623139855,0.2923311746246491,0.7448524557286673,0.16349520983549173,0.7633298395760514,0.39040359775485234,0.9228422881936351,0.6821104972646204,0.9057334239432231,0.6761028046188023,0.7386244486019721,0.4238962158461688,0.677008092134597,0.07557709063608056,0.6181965906995729,0.4496679568328025,0.9390489808456893,0.761259741203375,0.6332570208534842,0.39847146544242784,0.6308921538527101,0.5074096039497247,0.6488906851045427,0.2008766346223971,0.7223291842484334,0.2977412569314457,0.7298870653483884,0.08357145346073136,0.7150386119008256,0.16842288924825766,0.595217488716993,0.08090813716216971,0.5760567858524166,0.048242439604984574,0.6838138503903649,0.17854601518093885,0.8182673407566655,0.3543539524929962,0.7044263229294321,0.4356880355505083,0.906272590627912,0.3178903881840438,0.8575608537527496,0.9687358130740608,0.8486824479892995,0.5433178005469091,0.4555368775169294,0.06682563894272392,0.9029794947604621,0.695994444750173,0.9358048932813027,0.48864582388047095,0.7375794337196686,0.3728948608774913,0.7287087912087912,0.4475141157946465,0.17606705922879076,0.7531292258153838,0.3269943737741924,0.782032111831219,0.32782623772994285,0.6610906553655816,0.2563510792100524,0.5400653184697254,0.30981666379667233,0.5167454315649709,0.2017456897261934,0.5550278179592745,0.3735701275634765,0.596369066928524,0.15347805452631164,0.8219213115685773,0.9580540971138151,0.739236871987065,0.31862598191518254,0.8385258374373032,0.34438133658881875,0.6592416149747519,0.34062824556122256
29,2.200910608014681,0.8264254637050606,0.7102240947992975,0.2640737340693691,0.4977639650153874,0.24583635099896356,0.7729697108987187,0.1365187387046483,0.8027863628147255,0.4607195306924532,0.9171093187898527,0.5828283460981768,0.8964553283948008,0.5911629406748026,0.8927509953413341,0.6111673901875477,0.6917231914442832,0.0915169705252387,0.7584338766922368,0.5459605240860179,0.9566164916693003,0.6270725154727201,0.5866388327648853,0.3375481800808167,0.6538629909694013,0.501359867035146,0.6729858979638456,0.22074582744081167,0.6900489934445486,0.24082295306507728,0.6679690788181486,0.06956891448994625,0.7349109461121487,0.15477782000942758,0.5364660490704961,0.037111490454078654,0.5776752728126935,0.048664544294817175,0.7522434636567209,0.2097957024730912,0.7916078228271808,0.3878924796073248,0.6954270911606343,0.28515840275613263,0.9127418303021522,0.2919921975928745,0.8519347856179889,0.9668332256893083,0.8528087841604237,0.48015280105052405,0.44039574910286583,0.05965020139120861,0.8788338145446974,0.683925046100968,0.9045361736506184,0.48472025694551024,0.7443674412162736,0.3562065537772964,0.7030677655677655,0.4369247124188906,0.1475315004524761,0.8003416788062488,0.41813741783515845,0.8044160231660231,0.2978278878097311,0.8255588594488398,0.4137414176108169,0.6792047039115915,0.37609586564422626,0.47594390208611725,0.1743777812931114,0.5766989818626905,0.36593956113610815,0.6175613947412258,0.1750503417569903,0.8228342684523121,0.9572740687715029,0.7265136146021147,0.3232513964551442,0.7854047527487296,0.35261832384497976,0.6864911720222531,0.3638041420554769
