epoch,train_loss,train_accuracy,train_1st degree av block_rocauc,train_1st degree av block_prauc,train_abnormal QRS_rocauc,train_abnormal QRS_prauc,train_anterior myocardial infarction_rocauc,train_anterior myocardial infarction_prauc,train_atrial fibrillation_rocauc,train_atrial fibrillation_prauc,train_complete right bundle branch block_rocauc,train_complete right bundle branch block_prauc,train_incomplete right bundle branch block_rocauc,train_incomplete right bundle branch block_prauc,train_left atrial enlargement_rocauc,train_left atrial enlargement_prauc,train_left axis deviation_rocauc,train_left axis deviation_prauc,train_left bundle branch block_rocauc,train_left bundle branch block_prauc,train_left ventricular hypertrophy_rocauc,train_left ventricular hypertrophy_prauc,train_nonspecific intraventricular conduction disorder_rocauc,train_nonspecific intraventricular conduction disorder_prauc,train_nonspecific st t abnormality_rocauc,train_nonspecific st t abnormality_prauc,train_normal ecg_rocauc,train_normal ecg_prauc,train_premature atrial contraction_rocauc,train_premature atrial contraction_prauc,train_qwave abnormal_rocauc,train_qwave abnormal_prauc,train_right axis deviation_rocauc,train_right axis deviation_prauc,train_s t changes_rocauc,train_s t changes_prauc,train_sinus arrhythmia_rocauc,train_sinus arrhythmia_prauc,train_sinus bradycardia_rocauc,train_sinus bradycardia_prauc,train_sinus tachycardia_rocauc,train_sinus tachycardia_prauc,train_t wave abnormal_rocauc,train_t wave abnormal_prauc,train_mean_rocaucs,train_mean_praucs,valid_accuracy,valid_abnormal QRS_rocauc,valid_abnormal QRS_prauc,valid_atrial fibrillation_rocauc,valid_atrial fibrillation_prauc,valid_incomplete right bundle branch block_rocauc,valid_incomplete right bundle branch block_prauc,valid_left axis deviation_rocauc,valid_left axis deviation_prauc,valid_left ventricular hypertrophy_rocauc,valid_left ventricular hypertrophy_prauc,valid_normal ecg_rocauc,valid_normal ecg_prauc,valid_t wave abnormal_rocauc,valid_t wave abnormal_prauc,valid_mean_rocaucs,valid_mean_praucs
0,5.25034839573202,0.28104724830165634,0.529735383127548,0.046436952997215196,0.4950100578101469,0.17276658178763546,0.533099233966674,0.019738615081863906,0.7057565595742479,0.18253348860010055,0.8907087133510602,0.6026696613096281,0.8349089332603723,0.28504568560094995,0.4800067942547274,0.018228032917261296,0.8215697053530548,0.6726005930521725,0.8988162352603987,0.12243459571213222,0.5307461543685409,0.11711911626259928,0.41561683177901837,0.029712598146135753,0.3753705225543467,0.013051285655072208,0.9007958480422773,0.7177506621219178,0.5314666696665279,0.021917917592008576,0.5093604459101039,0.02572667210386637,0.5994610223794665,0.02010482610956137,0.6437228141825885,0.05479043898940477,0.5853058557490887,0.04531126950833482,0.7954601867429237,0.2471445196711758,0.7582423568527793,0.248305333553429,0.7726442903368692,0.2664546004248014,0.6479906959296553,0.1871354022474889,0.37385531135531136,0.5017954247815083,0.1685017428489359,0.7009250666855313,0.18676113923236565,0.8096241886585142,0.29849090660625544,0.8298695129460751,0.6781901824916963,0.5287963511297376,0.11227215862785533,0.883553233581605,0.6732971874201206,0.748463370049474,0.23314519111368226,0.7147181639760636,0.3358083583344159
1,4.806193491728486,0.5198839783222655,0.5868802054240623,0.05908916311743912,0.4947852936615599,0.19796263326017244,0.5170449002205453,0.018569962507248766,0.8810118573830235,0.47845512110515914,0.887396579152719,0.6316617167371683,0.8301318169650064,0.3115283037015146,0.5132891177628487,0.024786477948765945,0.7624964083337595,0.5947274330061878,0.9365175288933593,0.22538660449904116,0.6743956642024582,0.2505629835812782,0.4553207335030597,0.032897423220808214,0.5792431050437404,0.023983075069080435,0.9158931270922961,0.7695288121207241,0.6350396919142489,0.05057268399128295,0.6101773844599794,0.053162905463703905,0.4515300491023752,0.014781039426502501,0.6812766261032634,0.07284632640561765,0.6188423846932972,0.05676717493958427,0.8030046568414569,0.2532064270339779,0.9018771087657284,0.48787479497577246,0.8019845357744372,0.35775250659705543,0.6922923226330108,0.23648112231943264,0.5,0.5071592897247755,0.18619284446807105,0.8703591655673785,0.4788948231712751,0.8236616680570534,0.366667648688363,0.7584863501744714,0.5902582150151545,0.6771564094387755,0.22519537122504116,0.9011323030993924,0.7204272369545719,0.7834094296784043,0.3171584117281006,0.7601949451057501,0.41211350732151103
2,4.584293992325929,0.5572093733302801,0.7181796960324143,0.09893811151632617,0.6571853073876146,0.3770858994826449,0.6186108996494207,0.02433990436478726,0.9345190121465005,0.6247433116800689,0.9186185873371485,0.7201263098877033,0.8766691796218363,0.353938288159287,0.6423180473184917,0.03312563665692314,0.865523253887124,0.7032642816757292,0.9216812631871157,0.1989599696061351,0.7794010262376174,0.3816069444035591,0.5740638019263202,0.06386330397436661,0.6245862072255135,0.028740960863312646,0.9234735379367943,0.7764216034349152,0.8341251717108085,0.0943868433098132,0.6934147248483367,0.06375326685745404,0.731013474813405,0.037840125887405804,0.749942859033235,0.08166066671817904,0.6709732961214354,0.07540867360762454,0.8612118819641144,0.2969062687704752,0.9137871019861167,0.597255887964811,0.8331035824478009,0.365260373423982,0.7782096148961506,0.28560126820216675,0.5331959706959707,0.6313264926408759,0.3647741134258373,0.9135872030361164,0.6033317078506453,0.8811901031599079,0.3962782916458929,0.8545734979327332,0.6699161512242686,0.7818524508017493,0.35187447270895017,0.9058008168940646,0.7142090837641122,0.8146088389753404,0.3281112334838057,0.8261342004915411,0.4897850077290732
3,4.426167206057755,0.5137775742309747,0.5741077309144873,0.08197893652586397,0.6213504005532121,0.3429863893051679,0.5144479568053199,0.01929677649107077,0.9123558428486275,0.6373305880943466,0.8679032045953041,0.5470418036046075,0.8269121751693784,0.359997727094883,0.4943985497123554,0.020472577934160713,0.8360106812051524,0.6542738715003075,0.8335002987802734,0.3023469462809486,0.7427322766680561,0.3530666602221038,0.4693782683498898,0.039581616289616706,0.5899158581608998,0.02866410217919827,0.9312516791005496,0.8100921528657077,0.8167134770016886,0.17686557330516656,0.6453368194724771,0.07579056866603712,0.5549206039055182,0.017566614286487047,0.7376712516444737,0.09101061390015283,0.6703106282390472,0.08670152918389201,0.8641468487800542,0.37433522613454157,0.9146826540874624,0.5623677121743538,0.8190490999483656,0.4199107526264155,0.7255760145686948,0.28579422565071566,0.5331959706959707,0.5970945902883,0.3190054477830613,0.9009000986238437,0.6306457346010033,0.854772417441553,0.41217149354292426,0.8232132070492331,0.6174498178455687,0.7486726721938776,0.3533548434031385,0.9156692345835526,0.7618173068940565,0.7990077515949812,0.3640030568376531,0.8056185673964773,0.4940639572724865
4,4.3353013851817135,0.5601099152736433,0.8135651579447588,0.21490550493105381,0.5970182100442578,0.3431282727108298,0.5409614547868004,0.025048231338859205,0.9545946020709373,0.6963362083845033,0.9408065568028793,0.7754170279683541,0.8958181194565719,0.5115711808896728,0.593431162135047,0.034513234409943326,0.8037711610678503,0.6354140028384652,0.9691803416099525,0.7968910503179717,0.7736844716469642,0.4045887028441416,0.5124144220954464,0.04369793099869476,0.551725630007591,0.02498971550291813,0.9350643356937827,0.8183847258156416,0.8241796941891437,0.25182720783071916,0.6722681513787659,0.08049732666197006,0.5224510616971643,0.018235892393312497,0.7578921365675788,0.09697350033503592,0.6917087151147355,0.10642827056349664,0.8436932585088309,0.3861349433893864,0.8973976791513893,0.5410309844003183,0.8336073402133246,0.41237436065331184,0.7583444601039891,0.34373277500850474,0.5576923076923077,0.5905687259330226,0.33070697834823004,0.9410737098794458,0.689725694944898,0.8976783933912548,0.5691950993536543,0.7887309034395801,0.5943000470782379,0.7675843886661807,0.37751438936175347,0.9197754308119356,0.7774485139702032,0.8138660354034674,0.3657382718805162,0.8170396553606982,0.529232713562499
5,4.2223152377097515,0.467903213495153,0.559556970995523,0.10240456604528622,0.5445922167187692,0.2659544463852229,0.4148351394021137,0.013553974158285121,0.9301705614231714,0.6684769334717033,0.8063729585055197,0.3884630445685795,0.7740034377620395,0.2694597165932465,0.4299756803779384,0.0152480066875869,0.6813670629806919,0.3975273738361044,0.7270042838692,0.24900171872248333,0.6888477527565469,0.2739616151750716,0.41667238459827,0.02839752400113211,0.44497152342520246,0.02076637759006924,0.9340454918694336,0.832603871657679,0.7628798730558711,0.21754262709488115,0.5435202494591297,0.038681197025725846,0.48284698315722907,0.019186509993531754,0.6046821675740719,0.06039092931091855,0.6811946457004527,0.14721200815321842,0.8655618485598285,0.34332731672664657,0.9473182599765597,0.6443530769596109,0.7489588925695443,0.3571555754069162,0.6661608754636719,0.25493659093161425,0.4816849816849817,0.5416241264959303,0.2423464954039024,0.9105577448846682,0.6614419438204896,0.8134982806681994,0.36920062918538915,0.6703037855907106,0.3811300417826951,0.6886861106049562,0.260895158564631,0.9165968029690367,0.7788635028250973,0.7263944159755312,0.3021354666258287,0.7525230381698618,0.4280018911725762
6,4.145234002474473,0.5269063430272498,0.8212658090656707,0.2911307971132945,0.6177358872482779,0.38791214604960855,0.49993092383320026,0.018727044663943915,0.9629785160781402,0.7318335060134554,0.9172220159005254,0.6937794856380092,0.8641783817618507,0.4490660958945197,0.5510181857434947,0.02375894478216352,0.8504317239129198,0.677727756302225,0.9277355069034916,0.6834297511305745,0.7177615284955754,0.3184617737184498,0.4756993568176144,0.03578804207241814,0.5075491202176186,0.024112977192062353,0.9459593927867103,0.8575539171009752,0.8312431175058154,0.3107364304548359,0.6468205131632465,0.08360116348512575,0.7003379144318026,0.06385682441667097,0.6093852701280726,0.07081966733280046,0.7418267995418979,0.21617161448910482,0.866881142899953,0.39155222710248405,0.9413443721029603,0.7323686115409026,0.7893749878519861,0.42866664000907123,0.7517466888757535,0.3567169245953665,0.4913003663003663,0.5975592255804343,0.3703517222000552,0.9505873736512045,0.7259220396454837,0.8763179848210472,0.576412931670455,0.8386452804738586,0.643596338935536,0.707665019132653,0.27463011886370586,0.9232633333162934,0.7987010997171383,0.7629339358357093,0.36363273995081624,0.8081388789730285,0.5361781415690272
7,4.080436811329945,0.5162964659186322,0.639716207991863,0.1934482646507118,0.6747937508225859,0.4307203746434767,0.5046726110150138,0.018698025879343952,0.9445537062352988,0.6596941884692412,0.9034550329410201,0.6192674398088727,0.844749810052083,0.4007162798994208,0.5231703135516808,0.03462026834271682,0.8190912223699108,0.6644035122653,0.9369254788821381,0.7260551344758709,0.748864062030192,0.39142029035133985,0.5000551978545867,0.04173994599888996,0.446546968290765,0.017432999637594704,0.9340396667766182,0.8279120492695208,0.8316249748449133,0.24265882935688313,0.609151019776854,0.05865552173313757,0.6195099159353017,0.02882898103259428,0.6377840799920069,0.07152160602664157,0.7668839733309987,0.23938298681413875,0.8903345327042982,0.42786129940611417,0.9167867918355753,0.5759407948564411,0.7756688590838834,0.4094108068675042,0.7365894369675041,0.3371614095136074,0.5016025641025641,0.651836234562698,0.40359357383196615,0.9147532115169347,0.6388723050160119,0.8579211345555172,0.4560283674613785,0.8062317098202505,0.6398319864708104,0.7297546920553936,0.32687100187014045,0.9171302378603305,0.7732628328788154,0.7520534951314009,0.33697562443778706,0.8042401022146465,0.5107765274238443
8,4.049340194094755,0.42737195633921077,0.7108482079585149,0.21162083299463055,0.5808247230572963,0.2965483073706732,0.4363167590886788,0.014285498385525945,0.9146102001334937,0.6315662631581735,0.9286207444891978,0.7111388669219924,0.8739292670372456,0.445979288959369,0.48999879354355313,0.018688814821570688,0.8426485791480969,0.6696206594469364,0.9741987686467283,0.8660375837866361,0.7108042308845066,0.2897647344831832,0.5025911571338557,0.039345164024922205,0.5018626637283803,0.02153757132660304,0.9465969667408255,0.8577159856015163,0.8299988000554974,0.2654241543864407,0.6225481818546362,0.06769577749706672,0.6507310168308383,0.026533554254597167,0.6566954844267475,0.07941933029980122,0.7483183289950297,0.26423531482446616,0.8775085630641217,0.43745838377550345,0.907404889696265,0.6165074842648374,0.8043261899590823,0.452081278282236,0.7386372626891711,0.346819278517461,0.44116300366300365,0.5642382962276138,0.26304891125521784,0.8874148485062859,0.5782768564298271,0.8781655034895315,0.5297261666928332,0.8349458991877546,0.6477965557012118,0.6850514759475218,0.234145411516282,0.9227978877307419,0.7968478334556677,0.7840488049048265,0.3849652326442898,0.7938089594277538,0.49068670967076133
9,3.9798140773135517,0.5367529196244561,0.8748694006519546,0.4049454674523961,0.7347595833707976,0.524949994643017,0.6300330354987407,0.03293026819385231,0.9700609109696856,0.7770081479450927,0.9501705424952244,0.7916663881437515,0.9240477753457446,0.5646473972980616,0.5460496488576762,0.029643951005723125,0.817831380078246,0.720868100176997,0.9646236044527723,0.7839676081533219,0.7659168696177178,0.3786827948790802,0.5475470922619402,0.06841351267150211,0.5417898334743875,0.02460810700366422,0.9084349730150821,0.7366879217725251,0.9060721566627542,0.3924466431860301,0.6816947142696198,0.06244607458442157,0.5759878646134754,0.02807625770541418,0.716135205552097,0.08910596678194034,0.8415533333760402,0.32373186567801215,0.9079464946905091,0.5476514103520067,0.9290117911831058,0.735483840289076,0.8238658101104553,0.40245136108181545,0.7884953343118107,0.40097205138084296,0.4590201465201465,0.6963760503121896,0.47700014797659984,0.9516435226605967,0.741506536764718,0.9221356339145828,0.6081079529601535,0.8049086590622526,0.6935042423931224,0.7280646410349855,0.3089139053807988,0.8803372883002163,0.6512870484108281,0.8037317168275706,0.3497365551663797,0.826742501730342,0.5471509127218
10,3.925405151033645,0.5498053583695901,0.834141078976548,0.2921783985666486,0.6453464981836867,0.3894869763548862,0.4995942665357305,0.01949994383035751,0.9660486038484739,0.7533319716345259,0.9250377082255596,0.7716473513018811,0.8922307611301606,0.5147591453128766,0.4323079511829623,0.020891450978304,0.7542165276816514,0.5618542159807547,0.9231972463544751,0.4805747586469499,0.7633383474181243,0.3839007306260065,0.4859995312428349,0.0425104976260261,0.48142344714423363,0.0233206634853571,0.9506904208805014,0.8645773927351653,0.8888832641490331,0.40879518553632893,0.6485956466861311,0.07459999524131636,0.5737579724239152,0.13715549678376449,0.6863621721453492,0.0901120808541752,0.7854298657510318,0.27902496712803837,0.8910205245975329,0.46843062458809853,0.9595367346307054,0.7626882549429254,0.8025595820093254,0.4596782746076113,0.7518913405332365,0.3713818274648571,0.5547161172161172,0.6187973758385537,0.3612218339660179,0.951662664841224,0.7383343607328879,0.8922218039758277,0.5976771690746201,0.7396753951265284,0.5399957633961426,0.7323074207361516,0.3074013227340251,0.9252147030707651,0.7919787585458669,0.7730649358550675,0.3792513957073966,0.804706328492017,0.5308372291652795
11,3.880753600336233,0.517365086634608,0.8320498220047188,0.34238548018552595,0.7127422529234109,0.5128317577019155,0.5606851928471273,0.02600774069215451,0.9550966312468099,0.7653725802388751,0.9468783695016945,0.7974137411214319,0.9050671313337296,0.5593786081994504,0.552654204183229,0.0328699755516476,0.7996590290065057,0.6734412728210744,0.959588052754772,0.7092278548963702,0.7951983029140722,0.45089361686796253,0.5193904118778989,0.0599349190145643,0.47962245199731246,0.0195164107258563,0.9291406654642179,0.8072468438267906,0.8919849956939491,0.3832461114594822,0.6056416879736792,0.05626399994962439,0.6127046429487677,0.029195134099964208,0.6929291228126456,0.09376620675156501,0.8347022656693195,0.3612129780305887,0.9160739446983096,0.5152221499761381,0.9345957148241639,0.7014353463203732,0.8109000612923895,0.4562140188576851,0.7736811882842248,0.39776555939471614,0.5130494505494505,0.6831931546474838,0.4644793283130604,0.9296824478687679,0.677863417801862,0.8914847294850143,0.5413014523818782,0.7745682198047092,0.6187419371388158,0.757982757835277,0.33788581087945824,0.9013752498479188,0.7429328886038968,0.780001548659718,0.3568712252010471,0.816898301164127,0.5342965800457169
12,3.836514224260693,0.5623234867567362,0.7395478836486115,0.2905661831001936,0.6135593224020075,0.3507850464723187,0.4467903438640068,0.01802687864110003,0.9611581472214389,0.7634199772579789,0.8901059352881225,0.6150478415889273,0.8283343240806718,0.4068606233393988,0.42761261318466404,0.017189303564112197,0.7839384225112287,0.5466361591704004,0.8905010856133918,0.46452041640812824,0.6588072777299047,0.2618583726342859,0.4668933458561697,0.03929922580706528,0.4706644942971894,0.021679033869039136,0.9495022844189294,0.8702512682794852,0.9033604070811725,0.4322056086720815,0.6235320598136694,0.08457437054258912,0.5886874362355244,0.10630610830125051,0.6385851395392432,0.08573040079481904,0.7982759958346589,0.322750525228587,0.9012781924556122,0.5268453313611245,0.9394423481127248,0.6636039847975996,0.771154355290866,0.4305863547030255,0.7281776864038003,0.3485115721206434,0.540521978021978,0.587494731734796,0.3063991171915623,0.9349781737527413,0.7078433017509327,0.8424227318045862,0.501360139811277,0.7742113597044249,0.5236925164351244,0.6239317602040816,0.18983142661344765,0.9232832700300073,0.7871530591331891,0.7477144824572806,0.3666916946594938,0.7762909299554169,0.4832816079421467
13,3.795809867864128,0.6526219372566979,0.8791555436984669,0.33499051165984456,0.8082045538358894,0.5656231393890538,0.6255801151791672,0.03137334653527559,0.9816184685343889,0.8254925726571878,0.9170152329153894,0.6582448175587381,0.9024359098013124,0.6006589938889302,0.5234551007708621,0.029947355649260356,0.7939650997831647,0.656274638000565,0.954954479946571,0.7991448584266019,0.7821898484400186,0.44442180094091294,0.6130799383822103,0.09424214536663147,0.5686926669583148,0.026830717415802903,0.9489312989956978,0.8520210056413966,0.9255962536732676,0.4754841796271594,0.7422927172981115,0.13517884191889032,0.6276829555692116,0.08882359452992526,0.768991852901107,0.1061174590907275,0.8603660546063958,0.3714279071908782,0.8944266091583314,0.48307501703108763,0.9602872261070281,0.8036826251111278,0.8556668055413535,0.4940635993319764,0.8064089872426792,0.42271995842676063,0.5538003663003663,0.7583477075593695,0.4932087549243091,0.9736378882013424,0.7853653716898575,0.901191323987222,0.5909747946362143,0.7671052400082105,0.6129409407813003,0.7482438957725948,0.37382647667478414,0.9182270127134888,0.7670333512215498,0.8177233042867454,0.40722363301682246,0.8406394817898534,0.5757961889921196
14,3.7738971858886843,0.4334783604305015,0.784999708204457,0.2617683088853544,0.5921516286007547,0.2640223033847649,0.47889936741897976,0.018151086832819692,0.9553316283734827,0.7474175987814029,0.8118876187523945,0.40983140112470345,0.82141537279001,0.44400752623486645,0.5173456688213556,0.02294960469416042,0.8223074891027317,0.6580115170522403,0.973388952430395,0.8658118271339439,0.7239097515130442,0.35490771007501387,0.5861285243830153,0.08676102834925181,0.4821815277726671,0.033069110065914495,0.9476960143732411,0.8652605838128264,0.9380134918760007,0.484428153467089,0.6729850551754558,0.1229736059711844,0.6119042309780501,0.025942501904027908,0.6001627682158551,0.07707232332220662,0.8362160453888353,0.38154173379699186,0.9081966666515733,0.5449017724798356,0.8863786859206828,0.5913459171251723,0.7837504121270319,0.46808920499017126,0.7492976480414292,0.36801261045161626,0.44184981684981683,0.5587204437472632,0.21185974312585287,0.9448072673704886,0.7165493672664152,0.82823875312837,0.48714218402824144,0.8016693546022344,0.6103344630287822,0.6828022503644315,0.2772494667658758,0.9185792279891012,0.7867199519459288,0.7517310420544077,0.38859155521615385,0.7837926198937567,0.49692096162532146
15,3.7329095565547523,0.5516372795969773,0.7579237496560982,0.2351070320211143,0.6060294953807047,0.34917452535221827,0.5086452027314283,0.023876541817234184,0.9535145611661782,0.7146630795542201,0.9313515295650606,0.6793759747402834,0.9359516292216663,0.6143691036264294,0.5148651308687756,0.025317345935360083,0.8266069830679281,0.6071927347101412,0.9616921328405037,0.6049605838165801,0.7236337308846266,0.3653889836271888,0.5776661837562055,0.08071087451096844,0.5329845140311354,0.024641125616457343,0.9553615557910545,0.8864270287972202,0.8902766372055291,0.3892628762579422,0.6419400297502545,0.10171351061852421,0.6042083062365387,0.06832076854764976,0.6394748344165055,0.07993698319720206,0.7921639344962408,0.3546427274046317,0.8412135614402168,0.3915617202829945,0.9027591562691377,0.6315061895958536,0.7719064154431228,0.4079364497995725,0.7557223463913767,0.3636231504680851,0.5521978021978022,0.5803714204065353,0.29331201520429195,0.9150445055699584,0.6278746863948046,0.9306570085661383,0.624788596465594,0.8002169897076503,0.5677734519798069,0.6923139121720117,0.29177434837766303,0.9242059820365097,0.8111554200440265,0.7456320882293566,0.31318423207963364,0.7983488438125944,0.5042661072208315
16,3.6962601476093804,0.493473780627433,0.8344290394924425,0.36217189334188693,0.5803765847403626,0.26884670170898656,0.5433894464435388,0.025920947618001802,0.9390428964567056,0.7092188873770443,0.9287831179871588,0.6680354515685518,0.9078146098489471,0.5781535108929833,0.5535879379754391,0.03035646985492968,0.8254510215776691,0.6399637376625931,0.9678781913834111,0.8031948233045493,0.7291412452927715,0.3627818242064893,0.6092154092029259,0.09939826931854714,0.49630601789956136,0.026119786246845536,0.952788184185224,0.8758275297718066,0.9580331909649179,0.5249229316704735,0.6699257723513586,0.11537284626522716,0.585155033440925,0.07658701279875037,0.6829345495336997,0.09616985741847692,0.8257060687138905,0.37408722459918575,0.8911007936759491,0.4935936930773357,0.9077412907482276,0.6452560712954027,0.8033785543277896,0.4691763060811006,0.7710561407734722,0.3926264655275795,0.4945054945054945,0.5711029742826421,0.22805527947401238,0.9134773435646902,0.6488041378794185,0.8998524833662278,0.5822672848262218,0.8010559188341202,0.5936668221949036,0.6744040975765305,0.2594734963022717,0.9203656086576458,0.7734636198218909,0.7674997165399623,0.36631092748769783,0.792536877545974,0.4931487954266309
17,3.6429690884211694,0.6120906801007556,0.8486808340350321,0.35831517942586993,0.6200281818493774,0.3905170091911343,0.5176176270983666,0.031574729440563,0.9286876746750999,0.635610810315546,0.9366160457222299,0.7580506034973769,0.9124923233484373,0.5862905570635255,0.5154805824009753,0.024323354425437076,0.839737487407047,0.6746358955170632,0.9610404944160085,0.7467411867566337,0.7173243708517418,0.35246046205809656,0.5896231430167921,0.11978107065305661,0.4952763910864709,0.022114207299628735,0.962703629103006,0.8975828823449018,0.8970775726622645,0.3339848051214144,0.6372562264532847,0.09346043650451286,0.6345609424314923,0.08859973808194549,0.6634573325727904,0.09125579975589296,0.823591190147246,0.39850303096292855,0.9095742075280872,0.5265429676200217,0.8885822114401243,0.6204216736647925,0.80363539805103,0.4857593139184704,0.7668116126808048,0.3922155101723244,0.5535714285714286,0.5929883244963539,0.3308898263112191,0.8945249202062364,0.5670599224907619,0.9054998270494639,0.5858564431182745,0.8174415740550686,0.6198045144939005,0.6626118918549563,0.23730272107112887,0.9293164263185069,0.8045483787888328,0.7710926070856713,0.38289206547185434,0.7962107958666081,0.5040505531065673
18,3.6035896043869915,0.6423173803526449,0.8852895028637647,0.410424011790119,0.6518172905723287,0.4540826247286636,0.6250912410708374,0.03871919567420862,0.9599530451915491,0.7740257845622914,0.9143377476111972,0.6400924130908615,0.9354828490809669,0.6149656838684724,0.5483335026605539,0.03529720458141479,0.8857816672345762,0.7829121034196428,0.9419879568566694,0.6728027828945099,0.7592941442832595,0.4470555117827469,0.5889234889799606,0.1120280165813302,0.5132551675545579,0.025647430905642477,0.960530448391783,0.889581587008997,0.9430360720816661,0.49122991825342194,0.6925622454376896,0.12985952128761602,0.6465277819210185,0.03802125737272741,0.7102623004284905,0.108882323021463,0.8615282146332158,0.48728530440622597,0.9228660465503025,0.6027162958943135,0.9252471948370554,0.7102095636576946,0.8232961663463615,0.49510294932817184,0.7950192416470384,0.4267114992433589,0.5528846153846154,0.60996128724535,0.38123221304435684,0.927833979035151,0.7136286948805168,0.9200205505931187,0.6079653620944405,0.8524138638829429,0.7124081591229982,0.7093556395772594,0.30489203754158617,0.9220515389609394,0.7782400989149011,0.7891660190872309,0.3726519173759284,0.8186861254831418,0.5530026404249611
19,3.57600187551028,0.6359819861079307,0.9148420552410648,0.4427813437510525,0.7470395375535739,0.5426288496928322,0.6298201099948941,0.03915193746983152,0.9657739423121541,0.7998934274183928,0.929197732340037,0.6945038757261776,0.9378500011810234,0.6656836584338456,0.5519935105342697,0.03915669964325311,0.8185792993250401,0.7159999494217385,0.9702986270528188,0.7875960126088684,0.7878532206166112,0.46865646868591304,0.6732195295104715,0.18234040038022067,0.5398058768454578,0.028805274748899552,0.9525852042642486,0.8512890815014251,0.9214448831741533,0.48167136408375205,0.726152655277042,0.1776700198755572,0.6322475225077413,0.07043771348410204,0.6817441127260953,0.12213935632102749,0.8781288992239454,0.49419635884889124,0.9342853520457709,0.6691924460648645,0.9122644206345403,0.6596394152071414,0.8322758273416211,0.5259482562323126,0.8065429676048845,0.4504467576000048,0.5398351648351648,0.7030133449012443,0.44532364897581667,0.9334268248532085,0.7166968004560273,0.9195220461065783,0.627770421186017,0.7931677565023605,0.6520052124576865,0.718388985058309,0.32074669281077844,0.9083657517930261,0.7276124522522309,0.781562099871959,0.3777811613181878,0.822492401298098,0.5525623413509635
20,3.5257676941103155,0.6333867643691321,0.8866799503113875,0.4286302934436152,0.653763545248852,0.4399498567071157,0.5399335017272603,0.037978543193712314,0.9436797507165472,0.7071602081148012,0.944412405872016,0.7427615702817512,0.9332630173374223,0.6241482533565152,0.5526732534955489,0.041928027725630465,0.8248605564741857,0.6651375722262951,0.9512828173853165,0.6782926209967248,0.7670378697182634,0.43176447779363325,0.6423494924344971,0.13195041705161772,0.5479750899816153,0.02662827244759699,0.9731832237326915,0.9285626980519981,0.9464474768041978,0.5214613545223084,0.7106749565107802,0.1565311380501306,0.6307902618594466,0.09009939300069555,0.6680767286228458,0.10227411080887203,0.8578547141595256,0.4874975347871459,0.9104238248504011,0.5436019439261367,0.8653700836435345,0.526708766400781,0.8153842931401177,0.48434038127715323,0.7888627054298312,0.41892416353163,0.5689102564102564,0.6178522747598185,0.3650178305683166,0.906541216027831,0.6138129766817051,0.9064042566179015,0.5875781606549393,0.7944730668856113,0.5859025298632218,0.7006206723760933,0.2929091597461554,0.926343044387304,0.8032377154749095,0.7815499318313177,0.3613570465896017,0.8048263518408396,0.5156879170826928
21,3.4734791828634064,0.5178230669414549,0.8552877520905066,0.3648966754505911,0.6386296141371415,0.41764906650152644,0.532088371917476,0.02527601162526536,0.9250243608185236,0.6442364699631067,0.9574215759488618,0.8059789936057064,0.9504988839329651,0.6648314365287656,0.5624760296153308,0.03314231119245462,0.8520412247670363,0.7003521683548227,0.948462430746518,0.7062559855518569,0.7622332450499261,0.3673715929563225,0.6691516174669789,0.14612657637247234,0.5397915670088762,0.02514845314733366,0.9666285204966067,0.9144745994717332,0.9220409493560922,0.498008531745314,0.6871241834433532,0.1593798471068945,0.7197286541892142,0.12650522768907532,0.6247591140677384,0.07527778700073537,0.8538374235814389,0.4909666168651381,0.872035138097804,0.5359100185623139,0.867891498294172,0.5037512233261651,0.7654445472892454,0.41482783771636317,0.7844093667769431,0.4104936871778075,0.5187728937728938,0.6097491175013312,0.3447010790740229,0.8831744393629816,0.5870440590342813,0.9353582110810426,0.6464897362969105,0.817731284637715,0.6254184822083731,0.7077265169460641,0.2455268120251443,0.9222578072682102,0.7942894910402483,0.7276007112772848,0.3107242710882765,0.80051401258209,0.5077419901096081
22,3.4585528942603445,0.5032440271734983,0.8818759952312272,0.4757374509621516,0.5951181070554095,0.3791637384237305,0.5068862529170439,0.03705787044367176,0.9516162912304624,0.7419945342742889,0.9422544989871785,0.644196477820029,0.8911004233968592,0.45111795156136564,0.5894158845865665,0.0362521571873946,0.8336539850683212,0.6932725977307156,0.9745288690242819,0.7751570657864242,0.7494925323851805,0.40816411453229584,0.6669028568711138,0.17388514541701064,0.5413329408349585,0.039619080103110785,0.9674626036059428,0.9102527881272153,0.9177497415744521,0.5258432411346922,0.6850132138485715,0.15790391111062083,0.669934192077991,0.08813209505158949,0.7043265736572123,0.1232901562479616,0.8556624294358355,0.45656741488023267,0.8983383889131525,0.48882330626221415,0.9028024771984726,0.6186789588926151,0.8141744716775922,0.5284925231090534,0.7876020347418011,0.4168382180503992,0.4951923076923077,0.5817381882924242,0.3175097957685702,0.9050980620622788,0.660369878218928,0.8886371497751643,0.4552732291102715,0.8138222443773276,0.6197159482704667,0.6903790087463557,0.27289431586758295,0.9166362929981239,0.7739738647218704,0.7762352635348712,0.38698974357561894,0.7960780299695065,0.49810382507618695
23,3.3837068775265955,0.46278910006869706,0.8400463538062644,0.369000380392527,0.526862584381574,0.21464682439522492,0.43241253141363306,0.015583773138155803,0.9485965313049903,0.7574360996991355,0.8273115913877634,0.4075036528438738,0.807383585547424,0.43302126141184605,0.539280316980557,0.032734696421900786,0.7801716374040386,0.4952073254208564,0.9596286111629357,0.7421300383783374,0.7429713725634175,0.4016407055594493,0.6055790594625258,0.08767042125454963,0.4892747774820412,0.02358204142265838,0.9502765445268693,0.8675240993654214,0.920626483525137,0.5029587794596859,0.6257969841109199,0.07281454788004693,0.6468380277908704,0.05419925237863199,0.5949725472741253,0.07248378058636601,0.8307636268645987,0.47440135331385863,0.8867872568927471,0.5037870006376605,0.9087599016015544,0.5686856024839807,0.728530913058611,0.33279046466840967,0.7425176780258379,0.35380010005297985,0.4178113553113553,0.5041210683322266,0.17170870503706454,0.9179033486332067,0.6893506946340047,0.8099690723747126,0.4570643276124681,0.7618112776002111,0.4575723469821491,0.6702737791545189,0.2614492648638702,0.9059145584017912,0.7516696532720664,0.6683124863455225,0.24924008392880698,0.7483293701203129,0.43400786804720426
24,3.3416531334741544,0.6436913212731853,0.8843912728121588,0.487886861507567,0.6444388410865997,0.41321933373233855,0.5755169852597157,0.04485791359075834,0.9679423228620482,0.7600940139421197,0.9675598970337314,0.7900405718138329,0.955404067444305,0.6651061587094189,0.6313538981242777,0.07605746097055921,0.8583316682159499,0.7532091767245938,0.9729191508691667,0.7602939202366495,0.7914941012813932,0.44784152067468735,0.7163441696629194,0.22946313202136256,0.5686637065747566,0.030568366005955423,0.9749938731252676,0.9316699014425177,0.9370404118809504,0.5610486242025771,0.6804287053674576,0.17600133667902437,0.6945450423306625,0.12558331732909836,0.6875482649028487,0.11418729874073302,0.8939676225170419,0.5756699699447791,0.9072521671622081,0.5357170891647826,0.8996145575317116,0.655659934526996,0.8288115759435883,0.5170222462478219,0.8113601096185125,0.45958086420038924,0.4961080586080586,0.6076327654229107,0.33005825623060064,0.9297756619657356,0.6867365970696672,0.9198425132764971,0.5637086969210445,0.8213778846435797,0.6585468005176554,0.7178508791909621,0.29759973594884814,0.9195395130329876,0.7774957941141687,0.7730555332782084,0.3679485924437811,0.8127249644015545,0.5260134961779664
25,3.3143598743271587,0.6857491794519502,0.8083925400385169,0.4041214098944832,0.6621940577475979,0.4672630012515352,0.6212258242317769,0.0572414298112232,0.9821098788919307,0.8153947730579605,0.9428186965702289,0.7482803622434471,0.9000893640976785,0.6047775584866231,0.5525948338264989,0.03739712178995502,0.8352071615170298,0.7159585526093714,0.9266643142789932,0.6539761361094204,0.8264053715378038,0.5781451257057402,0.6520388389088827,0.2093006985215768,0.5517198379308794,0.03277368847779355,0.976304954136167,0.934632883259076,0.9188987509327695,0.4903463814033798,0.7028263696478663,0.20615006996993557,0.6841745520825254,0.04471595647244249,0.7027225331559623,0.14992828274168848,0.8970393123628486,0.6060974827432759,0.9219737219619081,0.6236557724261591,0.9184328354132438,0.6713909113749552,0.8375550674753511,0.5758101672500668,0.8010185150831648,0.4584456078857194,0.5695970695970696,0.6147026231334922,0.3645345054793149,0.9541161930364076,0.7407627747459432,0.8745335422304515,0.5067627149372274,0.8009365744949125,0.6168755335769014,0.7414552204810495,0.3576743165103623,0.9185853623625516,0.768625485149654,0.775178303277351,0.384177811570407,0.8113582598594595,0.5342018774242586
26,3.282438083365076,0.6767422334172963,0.9300931244633048,0.6093287513763844,0.6667490664328024,0.46334530683672537,0.6317524623517089,0.0586751277096901,0.9332489479338814,0.7267384024435752,0.9172124127158576,0.6906714890131952,0.9399628026864343,0.6699619628505137,0.6340131821241254,0.07465066617113439,0.8675485997086769,0.7653892161371096,0.9707621195283327,0.7709742795832988,0.8392938131304951,0.5684116481127761,0.7861519622412706,0.3089836602640928,0.6171110211635669,0.04253622227293001,0.9805402598131758,0.943547182021161,0.9533959054393735,0.6092719888855731,0.7256992646455079,0.24699380012224298,0.6635875758461658,0.10521399747292914,0.7443692756697439,0.149305825482379,0.9199627453953124,0.6448048249324824,0.9468048584609166,0.6964407099887601,0.9093494000620302,0.6632547775547779,0.857496583163583,0.5828593519713255,0.8302431134750604,0.4948266281525266,0.5558608058608059,0.611235950436161,0.3586644972118161,0.8736291493797518,0.6491725834868921,0.9067053940220156,0.5993498515467479,0.8233571826525525,0.6683010179795874,0.75102211643586,0.3345298729596022,0.9182101431865003,0.7684730935793729,0.7880100552263117,0.3749728459432915,0.810309998762736,0.5362091089581872
27,3.2007524027422942,0.6937638348217693,0.8644499654013857,0.46854892658103175,0.5953678691298855,0.3905651585892221,0.5403732391808563,0.0556217421336415,0.9703502068438731,0.8056740893796231,0.9115899787371234,0.6223850851229761,0.8814850482448024,0.5898893674145649,0.562525875315901,0.06222147144464962,0.8040459939206323,0.6692585976512341,0.9586534067710909,0.6946175570702765,0.7883946133923456,0.5503733280674676,0.6083462552926251,0.21921747413134407,0.5161207123300366,0.06025843090996034,0.976490486851432,0.9311147877908693,0.9253393905531869,0.6425016102815017,0.6568306717867147,0.19076666335848322,0.6095063510909318,0.16106765094506756,0.6599617924085385,0.13345038108327328,0.8571358155975364,0.5992465553137786,0.9049004889827604,0.5666313969049556,0.8741242495843922,0.6382536451927967,0.806292025337407,0.5625658406814804,0.7748706874644503,0.4578204647641999,0.5897435897435898,0.5638489071819047,0.3199800329349293,0.9221961907060552,0.7057629992647506,0.8571143711721977,0.5186583751126926,0.7793645720317861,0.5829712403751287,0.6956051840379008,0.31359875209997934,0.920181321855239,0.756748844693904,0.7231134697444436,0.35537764934890875,0.780203430961361,0.5075854134043276
28,3.1518703096559526,0.6256774292038776,0.8236912969895036,0.41171067351568535,0.6490077061373274,0.43805222448561176,0.6188975301353681,0.06362124481538223,0.973547541966641,0.8119441202048637,0.9351440326733053,0.6451042170577537,0.9133704633941823,0.4966970644375209,0.5677406245634532,0.03854120669097342,0.7910325465291714,0.6412585284206368,0.9629870726833712,0.7204630670382259,0.8282007354470958,0.5993558992627049,0.7002053360190628,0.26475019577513487,0.5681148221287312,0.03340278700856145,0.9742521212461488,0.9123225809069309,0.9078567616247748,0.5695966835886712,0.6880908757611808,0.17916375334739268,0.555874833690315,0.02321201892506385,0.7278299732105772,0.1451669050744435,0.8925703968960665,0.6029851751472208,0.9011951448321739,0.5434949611695098,0.8742031528532332,0.5568724267769487,0.826877099040992,0.5601424416687133,0.7943185746582228,0.44085038930085474,0.5446428571428571,0.6029637975094726,0.3215301501946102,0.937095465383863,0.7102629621422434,0.904245426984353,0.47618505331988603,0.7565557282350526,0.5404285938996851,0.7386769998177842,0.3881701624491712,0.9170441010331307,0.7619920076562168,0.7668420892525781,0.36540975164256945,0.8033462297451763,0.5091398116149117
29,3.109047888735853,0.5983512708953515,0.7869142204473641,0.4313591632280402,0.749691250639065,0.548515231731206,0.5713638697465617,0.04801282638700259,0.9647092049985186,0.7910324305324562,0.8829001919630486,0.6344781863112376,0.8906727945373736,0.5976023625917339,0.5323660515855377,0.05349772654192245,0.7798024800757042,0.674311577677474,0.937125229042344,0.6793682694369991,0.8284586986512243,0.57012201877891,0.6864473132231981,0.23395595270410455,0.4710907230010861,0.02333674617791375,0.9765999284145219,0.9253412543672918,0.9585894152395452,0.6694717791603382,0.7056359832955567,0.2851783081653108,0.7268930218544349,0.1889135872810877,0.6639244850379219,0.1499018398447282,0.9268141689924103,0.6714166371723379,0.925677625385446,0.6115510726870695,0.9343008897253984,0.6808335997211366,0.8262751309963352,0.5704893799260191,0.7964882227072665,0.4780328547821105,0.49633699633699635,0.679142398381589,0.39894180362635373,0.9307893652702585,0.7176489802483706,0.8623791889637211,0.5519145593194995,0.7283293258657597,0.5757579571551691,0.7234722348760934,0.3121782124368706,0.9040065126598132,0.7319038188876383,0.7583355226588274,0.3402753835384814,0.7980649355251518,0.5183743878874834
