epoch,train_loss,train_accuracy,train_1st degree av block_rocauc,train_1st degree av block_prauc,train_abnormal QRS_rocauc,train_abnormal QRS_prauc,train_anterior myocardial infarction_rocauc,train_anterior myocardial infarction_prauc,train_atrial fibrillation_rocauc,train_atrial fibrillation_prauc,train_complete right bundle branch block_rocauc,train_complete right bundle branch block_prauc,train_left anterior fascicular block_rocauc,train_left anterior fascicular block_prauc,train_left atrial enlargement_rocauc,train_left atrial enlargement_prauc,train_left axis deviation_rocauc,train_left axis deviation_prauc,train_left bundle branch block_rocauc,train_left bundle branch block_prauc,train_left ventricular hypertrophy_rocauc,train_left ventricular hypertrophy_prauc,train_nonspecific intraventricular conduction disorder_rocauc,train_nonspecific intraventricular conduction disorder_prauc,train_nonspecific st t abnormality_rocauc,train_nonspecific st t abnormality_prauc,train_normal ecg_rocauc,train_normal ecg_prauc,train_premature atrial contraction_rocauc,train_premature atrial contraction_prauc,train_qwave abnormal_rocauc,train_qwave abnormal_prauc,train_s t changes_rocauc,train_s t changes_prauc,train_sinus arrhythmia_rocauc,train_sinus arrhythmia_prauc,train_sinus bradycardia_rocauc,train_sinus bradycardia_prauc,train_sinus tachycardia_rocauc,train_sinus tachycardia_prauc,train_ventricular ectopics_rocauc,train_ventricular ectopics_prauc,train_mean_rocaucs,train_mean_praucs,valid_accuracy,valid_abnormal QRS_rocauc,valid_abnormal QRS_prauc,valid_atrial fibrillation_rocauc,valid_atrial fibrillation_prauc,valid_left anterior fascicular block_rocauc,valid_left anterior fascicular block_prauc,valid_left axis deviation_rocauc,valid_left axis deviation_prauc,valid_left ventricular hypertrophy_rocauc,valid_left ventricular hypertrophy_prauc,valid_normal ecg_rocauc,valid_normal ecg_prauc,valid_ventricular ectopics_rocauc,valid_ventricular ectopics_prauc,valid_mean_rocaucs,valid_mean_praucs
0,5.116077888868172,0.4353102816578887,0.29807975095709116,0.023141910328753797,0.43772650969875265,0.1507465708654559,0.4333339161807177,0.014373118962380981,0.5813448747283003,0.17131102004403248,0.793780152879671,0.05522580211912945,0.8525254725015273,0.24329954233261353,0.3558805776484968,0.014596136313159078,0.4908238579692799,0.328354261524035,0.6365456728275208,0.03502072376102339,0.5794915623441411,0.18900133764392696,0.43385070072615406,0.03309706003968817,0.5063758839731193,0.019864639480235445,0.9076852774385904,0.7676942018487003,0.5257546723721253,0.021437591130456207,0.5344916281981066,0.03246066152155272,0.6292007967962426,0.08475798232964854,0.5693096677778282,0.045544421150818186,0.7361550937322868,0.1992766066595704,0.5343606986237731,0.13728435917087564,0.850862852498028,0.512087092503329,0.5843789809935875,0.15392875198646924,0.4993131868131868,0.44896815723439565,0.15833690997618677,0.578761983497353,0.15222034246818558,0.8431303196305686,0.2504422038364836,0.46570579561247,0.2997661823917863,0.6203015986627121,0.2091908036641328,0.906033316136277,0.7467650066654961,0.8521743804762673,0.48264045518052745,0.6735822216071491,0.3284802720261141
1,4.725892788016626,0.45805663689794673,0.6113630354549308,0.05262514917649116,0.6181152250959991,0.3608986083772511,0.5827337290867072,0.025839758132776572,0.8128012362058767,0.37918247025746754,0.9407658106380242,0.25733043995642596,0.9360561836050869,0.5559180466639425,0.38070972510497103,0.015226103803294824,0.7263644929686879,0.5446613103398082,0.9379039685951008,0.4605513096948817,0.5868452439760362,0.16236315822196207,0.4902185965468082,0.03782051396100114,0.41832030456783614,0.01467721911500163,0.8792784701638615,0.696504994009944,0.6328284342812419,0.06436412849371027,0.6168607209920977,0.040665727911586236,0.5262471396783945,0.05059480869380313,0.604500792606153,0.06376538110254494,0.8064664107009131,0.16459813875430826,0.8190658658170544,0.38873834581744043,0.9471971851786039,0.7787750494923317,0.6937321285632192,0.25575503309879866,0.4722985347985348,0.6131558261982011,0.36993907963330225,0.7895443488767706,0.37415134543757245,0.9197740288844622,0.5157351822960663,0.691486604870039,0.5013303988237253,0.6220258036190011,0.18989367198704604,0.8751221377018438,0.6670542582690849,0.9646820818809207,0.7592400148408718,0.7822558331473196,0.4824777073268099
2,4.492692209274639,0.4629417601709793,0.6939017808958445,0.12801215588279952,0.6185248246719159,0.33023860801128596,0.4559425662187485,0.015582056335602156,0.8547788775814218,0.4631236243606989,0.9735146436128225,0.3619026002764755,0.8788924987444517,0.4094360677151651,0.33380590197343163,0.013560054634002904,0.5983514082896664,0.38192189958099765,0.926769966312571,0.36102316862610967,0.6261130480429185,0.2418277702824126,0.4544070297714824,0.036393743889382844,0.4739143603980043,0.022906614906650698,0.9169200791409363,0.7859097521415377,0.6385693392571419,0.07522588479750679,0.6298788240356779,0.0590994410641869,0.5908819408525443,0.0742041461008742,0.6358476515155336,0.0778835632972147,0.8335800934219836,0.3842174903603813,0.7854812510913937,0.31002497878921154,0.930128398310915,0.6856190185490961,0.6925102242069703,0.26090563198007966,0.47298534798534797,0.6169515946046148,0.3404395359695809,0.8556225059221927,0.4718021026403879,0.8594952576059398,0.43050947359067254,0.5737050342388786,0.3516217556819691,0.6344085222374418,0.2501402626929253,0.9143255720905774,0.7639428753368458,0.9435399170522537,0.6714302255995261,0.7711497719645569,0.4685551759302725
3,4.33843942387724,0.5558354324097398,0.6982665512482931,0.1659636940142996,0.6277473814336665,0.3801281235637194,0.5018144767633319,0.018490187398083835,0.9137694390915803,0.5832724364846423,0.9763182782248607,0.4590249107154809,0.8603538885415025,0.35832451326168,0.4360692746515813,0.0177570598698031,0.6536564282459103,0.4267020968750532,0.9540116836727132,0.6655351728113214,0.6230895497337826,0.24741075487936506,0.5098768622808407,0.055447126158905846,0.5997928821510001,0.034709227993492464,0.9269094443348502,0.8005338867609637,0.6886193541800921,0.1569192137965158,0.7213028616696658,0.07851987663505369,0.6974138154972134,0.0905842950983981,0.6583614485780998,0.09363927126979639,0.9003872585323067,0.5067211511264951,0.8681868202470422,0.3154660342186271,0.9638266514743474,0.7873397546434587,0.7389887175276341,0.3121244393787578,0.5485347985347986,0.617477082978632,0.37739644601573086,0.9090565827755608,0.5888155589390522,0.8430199655921768,0.3696288011840395,0.6336951673416596,0.40668745827660235,0.6468329739334054,0.2657708781481174,0.9252368370617519,0.7701410016626907,0.9641569391206546,0.745688597894757,0.7913536498291202,0.5034469631601415
4,4.258894455814151,0.5937714678268834,0.6843366642882756,0.22135980155831916,0.6591578225630547,0.4330899451811513,0.6138147944151564,0.026819466904131485,0.9041823950369776,0.647484296285847,0.9221229140449057,0.4173383748151719,0.92859720986237,0.6089476311164786,0.6151871158484401,0.032330275799800016,0.8587662321865589,0.6767017070913347,0.9511464524448265,0.7671224812809182,0.7617549574278393,0.3863163066181949,0.4369504030947002,0.03540232857316907,0.5499002740674416,0.02911965248081587,0.9299871427885722,0.7950762794089201,0.822127296663285,0.20212800170477033,0.7415399323214145,0.08364868082670562,0.7008143881040874,0.088658566919324,0.6826596601291367,0.1301104637632801,0.8736225636018354,0.4512979457692217,0.8453303998866599,0.5629103332990173,0.9486193639637066,0.7512344339048751,0.7715308991369622,0.3673548486650723,0.5721153846153846,0.65019301056705,0.4310480969637191,0.8942654096249543,0.5968560025187277,0.9167810292919233,0.558708115798867,0.8302463685690303,0.6399433201531265,0.7762575376798239,0.43964424357003423,0.9259259494925767,0.7825318878446623,0.9497051757574255,0.6911443964571061,0.8490534972832549,0.5914108661866061
5,4.1557117323776795,0.5656056789558049,0.6808759240411884,0.1993315862048084,0.5986240805175038,0.3854807931645221,0.46134647217049457,0.01713203916571089,0.9518604546208387,0.6727740781546167,0.9811503047757874,0.5535554192625396,0.8575058281712552,0.3567152326862901,0.4003166701385142,0.020808985816917917,0.525689597290946,0.34795129893243376,0.9576423457969058,0.6957942097209767,0.6259873491702803,0.28540108554943,0.4724713415091666,0.04689991283201109,0.4810927877060787,0.03070669594432604,0.9279741179950186,0.8244776009632655,0.8201642729687596,0.27389470610902267,0.6814270205774196,0.10234575425200726,0.5780704621464241,0.0733567829216977,0.7155389469685126,0.19699617240256023,0.8701712667408636,0.38837205141962916,0.8677125376016026,0.5674662672909381,0.9877391859782416,0.822806587507125,0.7221680483442902,0.3431133630150414,0.5228937728937729,0.5926745090800891,0.3791627714298777,0.9432208779153881,0.6453564054798963,0.828122170409272,0.3598321290259305,0.5030257147050594,0.32404481877741875,0.6371045933826203,0.29260925073087407,0.9249787539574652,0.8039027554438561,0.985619565082555,0.7670885343760081,0.7735351692189213,0.5102852378948374
6,4.11000708190278,0.5433173040225937,0.7214576761065857,0.18885464312077144,0.5717735428316764,0.3454303421971037,0.5122507234593158,0.01884214131464627,0.9341791551883809,0.6754562335101043,0.9884258336885058,0.7061621948721913,0.9200329006634833,0.44745954951041345,0.4293760337112209,0.018918205805576682,0.4951615717832822,0.33450266306212584,0.9607879174139233,0.7456523508019294,0.6953380121247037,0.3410685914349719,0.47010062777726824,0.04517395828130326,0.5025974056947698,0.03318231683217577,0.9374464895567757,0.8378817341072218,0.8056163461954275,0.28522740506842853,0.6526037184101401,0.09563807026589188,0.5975163744061103,0.07428128955898071,0.7318146898581713,0.2561155927474674,0.834606266471934,0.3921996499445162,0.8864873101798616,0.5354245108766025,0.9561777429320295,0.7248798768128423,0.7301875169226781,0.35511756600626326,0.51007326007326,0.5710801590547097,0.33455115491784637,0.9293319448639883,0.6578422239632563,0.9059337932361464,0.4292778119392408,0.4691772693290281,0.31411429505095256,0.7095446406724856,0.3775544244834884,0.93077060713414,0.8106236334007018,0.9539404314440599,0.6635096439768328,0.7813969779620799,0.5124961696760455
7,4.049740819819656,0.5716357529959545,0.8119238890679724,0.30102038733416936,0.6630167869829775,0.43076617319760047,0.5639387223402488,0.021597006242551373,0.9474969326008756,0.6959939122017308,0.9895781055732231,0.7002619001567214,0.9534252279559401,0.7453923212098977,0.4911116521058219,0.02621260306065795,0.7657945115058571,0.6324012914665549,0.9732522661201016,0.804936943750611,0.7475381292531987,0.39576321408486836,0.5744610536320208,0.07933534002533846,0.5517010988591653,0.03230314035370668,0.936004048606585,0.8321696271384786,0.8799266116963318,0.3327367859666474,0.717177353102261,0.1269879470827847,0.6235794571776274,0.09408399194375511,0.7826040180004807,0.2999218246453421,0.8660546795808008,0.37927734733691865,0.9065643419843102,0.630681080689138,0.9812846914970637,0.8086065106885834,0.7863216788821432,0.4185224674288028,0.5274725274725275,0.6533678195852421,0.4211226867316593,0.9403647116806308,0.6633988572930831,0.9365917013763131,0.66499639784336,0.7289254885862759,0.5730829425037449,0.7531888644715449,0.3962936828604392,0.9257415498781232,0.8033934087936447,0.9804322297065403,0.7555357653235022,0.8455160521835243,0.6111176773356334
8,3.9766891433595566,0.5846118616899474,0.6935421246880625,0.29699965124362787,0.6662539413376434,0.4404540611462064,0.5064960162381281,0.019237823514353214,0.90107105798852,0.6543365181035399,0.9845125478852319,0.6852814761172362,0.9155880974366987,0.5046008384333899,0.47212054170860074,0.02304508937481174,0.750328706339128,0.5368499179023388,0.939022577564723,0.6060082265913065,0.7239715249201586,0.3748039287227074,0.5114880738993055,0.06030814935579259,0.5858912166223063,0.032133356846479055,0.9438234472364625,0.8491149441753626,0.8006783030230847,0.2950837321801829,0.7495025575072373,0.17865379909271759,0.6502839030520728,0.08762105370447243,0.7676838585714935,0.3656270969052824,0.915042677048726,0.5665442756470659,0.9130003525407646,0.5539042182032621,0.950368481780623,0.7210012721175107,0.7670335003694486,0.39258047146888225,0.5741758241758241,0.6559526972948287,0.4343211075617497,0.8989212865069398,0.6365276228743421,0.9046611848062297,0.4636773813850774,0.7178328257509391,0.4979311686402933,0.7369444069672516,0.41177836527045936,0.9342411122312813,0.8109121092923517,0.9564379607920973,0.6757768818388012,0.8292844963356527,0.5615606624090106
9,3.935195929821589,0.589573315014121,0.861075817556873,0.3705751975139275,0.638451967366782,0.3842640087001714,0.5405945917591208,0.0225689428642199,0.9712213018394121,0.7713886748542494,0.9912022314076682,0.7024836546616812,0.945687751558367,0.6760587487394255,0.5521366920738976,0.030715250379156164,0.7128779806649054,0.5163571521828675,0.9730348117548165,0.8094312493241679,0.7492735117003511,0.39097044197792025,0.5817927084462304,0.08100376583075605,0.5953789789863457,0.03633322115978964,0.9459207902551547,0.8498527686661455,0.8870183803955679,0.37398954103120396,0.7544220913856505,0.18069999519742033,0.6495123272914879,0.08623025804585985,0.7670465796901188,0.4033406688974543,0.9041847504540771,0.5667342511065414,0.8667883536346295,0.5019888697142214,0.9785470723768336,0.796261919199126,0.7933084345299145,0.4275624290023153,0.530448717948718,0.6287681215918837,0.37647650440196634,0.9655908678993308,0.7247300114703645,0.9330851310666425,0.6096948873261392,0.6733455030798937,0.4638919675793352,0.7517059110044979,0.4018501151604544,0.934208915473202,0.8093996291778872,0.9764161280852137,0.725313958067412,0.8375886540286663,0.5873367247405084
10,3.8844062299657782,0.6114800396916266,0.8240535029355625,0.3451285689800774,0.6442351365106747,0.43475069095418284,0.55033542866968,0.022875578240656974,0.958381337885021,0.7598569893310889,0.9670584912274507,0.5459681658647917,0.9099478738072292,0.658275590812604,0.49312323218126564,0.0318512201082407,0.7539305448111334,0.6041252227880096,0.9580728080409416,0.7892979721456834,0.7324965807764048,0.3808032063271338,0.5392986902548625,0.07305288287254263,0.5502403030414535,0.03938027884500206,0.9413768314381848,0.8314773439619766,0.9157207784888332,0.41072872443534136,0.7367040186605116,0.15506473911485563,0.6372159448687499,0.09674075575262765,0.8056405316765092,0.3992608898647099,0.904322938861973,0.5925940912923501,0.9139586374134709,0.6057420774382808,0.9651871164649762,0.7482132692654566,0.7850650364007444,0.42625941291978064,0.5409798534798534,0.6277998863894931,0.41508180388996707,0.9509753732173802,0.7337059322193445,0.8813658717403116,0.5449367776702274,0.7249818829777963,0.557288785696782,0.7426189621383802,0.38071295159476554,0.9279288932688923,0.7781884779477386,0.9590626408478367,0.680078019646409,0.8306762157971558,0.5842846783807477
11,3.8371197801174604,0.6063659262651706,0.7222400098516102,0.2848278145424684,0.5944126689173275,0.3546228569634159,0.47805743523837,0.019300159592195214,0.8781826100484473,0.622034049620844,0.9666161439116717,0.5998794112455053,0.9092135191009146,0.47434859004074914,0.4957700976049272,0.02533814580960502,0.6646434068170723,0.4389484739252943,0.9557240044634254,0.7923493471962151,0.7442069900952621,0.38034812759196657,0.5791607960182414,0.09447102357811413,0.6111065115207813,0.04146671785289539,0.9473436845815844,0.8637274493404808,0.8685465330194196,0.35940209967179193,0.7973041037477506,0.1889195277225026,0.6394887476205775,0.08844333430490922,0.7861067824560872,0.39642728265756905,0.8821912792357437,0.4840497580505237,0.9164992372599347,0.6344405161033658,0.9776882420813637,0.8110608592864395,0.7707251401795256,0.3977202772548426,0.5331959706959707,0.587783409683625,0.3311851971042677,0.8886723159350705,0.5946185411705316,0.8843560417421222,0.4492050723365527,0.6332162988987603,0.4062672416625042,0.748365549744685,0.4000761693647179,0.9359101259949497,0.828017554259866,0.9792330848208932,0.737006684995144,0.8082195466885865,0.535196637270512
12,3.8366225443489816,0.47935272116632316,0.7529623646761825,0.3094607590408908,0.6344612991175066,0.4252907863303394,0.5480819949700271,0.02519759570127716,0.9009135602523779,0.6416400689592056,0.9828339482650352,0.6576084599194072,0.9313933901922622,0.7374991621862381,0.4813495907821194,0.029006802453419828,0.7823942951577929,0.6622714959885238,0.9399919116292563,0.615098788042239,0.6995809739996167,0.2983232211639538,0.619316531468065,0.11625825175526885,0.557013284979714,0.038733668625259725,0.9368160866632651,0.8190525606638633,0.8783265595191762,0.35001557254603116,0.7524716864877553,0.15203244389909143,0.6543318397240018,0.09465382986684152,0.7793581150934736,0.42911091030690673,0.929140997687206,0.5912027248250009,0.9029211461858053,0.6517717913401008,0.9668568708224624,0.7773001861856537,0.7815258223836551,0.42107645398997573,0.3956043956043956,0.6176600690891907,0.40826489615009826,0.8917264185440149,0.5968071957166793,0.9037649119431366,0.6078801975585683,0.750326794387851,0.5999930445082982,0.7016530872187019,0.2607953520052187,0.9209825381582486,0.7667108004529565,0.9686651036433329,0.6999965682341363,0.8221112747120679,0.5629211506608508
13,3.7545044757912027,0.5472864666819327,0.7891469302455296,0.32814974132431285,0.5937291289317159,0.3395584688740669,0.5269909338089368,0.02091341030360954,0.9252109112083349,0.6975719658542404,0.9881151313549598,0.7050550380764378,0.9253836815307399,0.6872963553337794,0.5860929292270162,0.03767514355121573,0.7785817200481998,0.5740480710677595,0.9886576480627083,0.8684384049748652,0.7981014827943715,0.45010554322538254,0.6847636872952221,0.1450248623141278,0.5974283520110772,0.04821699992625,0.9535037288410225,0.8776293531672048,0.9093655867555096,0.4453786959192305,0.7560712678976605,0.20121957127521942,0.6309155922752328,0.0950583284277137,0.795258483743589,0.4030557191316091,0.9036446158238141,0.530135466764725,0.885785029208167,0.5917368568379955,0.988916430637417,0.8563578915514413,0.8002831635850611,0.4451312943950594,0.49793956043956045,0.5830307432577574,0.30555344549708097,0.9235957646385475,0.657507789684255,0.8884929033864541,0.5698447993439839,0.7420603296839383,0.5119535994606651,0.7786992085579106,0.412247638149705,0.9346085116011409,0.8259968036721042,0.9847202064183196,0.7630791215049496,0.8336010953634384,0.5780261710446777
14,3.7266911329654198,0.5940004579803069,0.8525574345248228,0.40051451455648013,0.7199156633295475,0.4998403632796411,0.5337384851213633,0.02393324705305365,0.9674829091565532,0.7507163050484745,0.9497665949596616,0.47279187168403325,0.8537485423161643,0.5909840590403528,0.45282904330104934,0.026245446718380066,0.6576733825387326,0.49610020603478855,0.9328042720148726,0.634162893041482,0.7342449080648444,0.3825206403414244,0.5240138561197862,0.07857068801596885,0.6039998037508126,0.05201568408758774,0.9605572161168503,0.8962623737393942,0.8876849506479253,0.35055034005617586,0.7655049487520538,0.18699345009605517,0.7021713453894032,0.11143444195775726,0.8109251890739704,0.48914925629521006,0.8973574570023046,0.5442487272048888,0.8068331955019751,0.42570750378092265,0.9680580085654904,0.7511473632797923,0.7790933603124092,0.4081944687655931,0.5686813186813187,0.6871752991027317,0.45331437179941036,0.9613117855609788,0.7064417009268076,0.8122481664252083,0.4985016762720837,0.6237862741770515,0.43265229127342963,0.7265151393884789,0.3389509913416152,0.938086779552997,0.8235801464202556,0.9583193777678538,0.6792479845290721,0.8153489745679,0.5618127375089534
15,3.706668694413679,0.6098007785665216,0.8737405694375527,0.4225244598718105,0.6534055628213267,0.45011654397602396,0.5528278297969068,0.023303416658328108,0.9531485971418886,0.7401092954708945,0.9898764504275939,0.6635167860471889,0.9342287583285841,0.6369101245362506,0.4779890097203364,0.027208020938808204,0.707858040639054,0.5391596958223552,0.9798345483534237,0.7966754293962944,0.7048547916148377,0.3315218176025119,0.6445401719092598,0.15182099990179276,0.5691872080963692,0.041638551694411566,0.9606948748447298,0.8865087414994409,0.8895506738722183,0.3728065416107217,0.7627317893748533,0.18814250475707917,0.6631506234917445,0.09855029547597252,0.807046041760174,0.5066110828885642,0.9060209185805486,0.5503454366987682,0.8282703098075523,0.5020335033642168,0.9726603688179647,0.7841909205315317,0.7915808569418459,0.43568470843714824,0.5306776556776557,0.621744637313573,0.39204128667963284,0.9414338860713207,0.7046293927042909,0.913059410086925,0.5144407414732102,0.6716817183192907,0.46481671985944784,0.7046138489788544,0.30884107125148463,0.9349404054551744,0.8012823012865683,0.9613647922791609,0.6747262693935759,0.8212626712148998,0.5515396832354587
16,3.6407765353802426,0.6643767651324326,0.8460722137509644,0.44883816757772077,0.5855339820322822,0.3881624306263376,0.6067439449442361,0.0328111753590999,0.9645362246627696,0.7980632014909812,0.9877333104677937,0.6693724115763534,0.9243842001602041,0.682626403825338,0.49181187773407986,0.04815821075663678,0.7099245538834802,0.5800875127359157,0.9709917570609147,0.7884555450314628,0.7769229487336672,0.49982477713640966,0.60341484155502,0.14602388631163102,0.6669865937273854,0.05830516281932116,0.9464065980745258,0.8308356696163531,0.912579869684718,0.44645039319393914,0.7693072236131759,0.23880184470752686,0.7338266672234683,0.12574045580388038,0.8330365472966499,0.4202758775488786,0.9062310973566294,0.46696613823334343,0.8847542593184431,0.6539576729507391,0.9806870042035019,0.840831518266694,0.8050942857741956,0.45822942277842804,0.5757783882783882,0.558917947436842,0.3605469435334962,0.9530938488688214,0.7382899623435627,0.8979394920318725,0.5633147207934892,0.6623748148165136,0.5012693728485927,0.7616023672373616,0.4550463165731603,0.9293612035937181,0.7847291648662884,0.9788929825214296,0.7238421548931671,0.8203118080723656,0.5895769479788224
17,3.603856378107178,0.550339668727578,0.605813355451164,0.27552772449062457,0.6375503061075201,0.4210495630176336,0.5053862383904086,0.022497257501369904,0.8904500050634101,0.65628281811131,0.9591774458351512,0.4493110656324577,0.787721233756932,0.34785161358222627,0.4554581834791928,0.024625146405980243,0.6402769384964946,0.4673591827548242,0.8470154547167694,0.5259353535051075,0.7448886327033708,0.4225590640162471,0.5899490608352023,0.13977392612200207,0.5513149036266578,0.04192585096260227,0.961632322041794,0.8916164450983808,0.8379133674895204,0.32464148712717716,0.7349508058837336,0.23176641352870772,0.6115783549735152,0.11331756634058779,0.7985095978469353,0.4503689618315764,0.9010972325082024,0.595112381928733,0.8491919567989299,0.5451677293181947,0.9688569260527065,0.7769800775903354,0.7439366161028806,0.3861834814433039,0.5364010989010989,0.6066725487419308,0.36448269988105797,0.8832072052019906,0.5973186000542414,0.7430186922763491,0.3108414184646948,0.6085089232067588,0.4061510846448573,0.7310406057127437,0.3501481691580929,0.9395753387595264,0.8349429773952755,0.9601242975698708,0.6792761747037236,0.7817353730670241,0.5061658749002776
18,3.5693263954428733,0.5728570338142126,0.848367693238246,0.3310209327942168,0.6850949440839804,0.45306526301636507,0.5592701147917923,0.029232953635605997,0.9533444373670855,0.7714282053705512,0.9777815046365766,0.6392417107646055,0.8930298524760711,0.6118367018124177,0.5377058324528226,0.03859639890241995,0.7574250688048472,0.5925078596533135,0.9583849090481766,0.70577696724544,0.7399762886217522,0.42307357214485464,0.6330380084537337,0.15251061418884362,0.6023873918074141,0.0502809569880443,0.9677636359550225,0.9106261743756373,0.8947191188866416,0.46697123342162616,0.7947265472185274,0.26780356601453437,0.6749279637929896,0.1028115636217051,0.8361628448425126,0.5562586823726736,0.9208678976743802,0.5970711826122036,0.8444384223306569,0.5149189340268294,0.9696345318696519,0.7871337392804795,0.802452350417644,0.4501083606121183,0.5476190476190477,0.6513732709801532,0.38265524743818446,0.9452034213580502,0.7347332782201139,0.8504483486508512,0.5059616017585962,0.7154165539130475,0.5099363626683934,0.72522655915921,0.3655177654075899,0.9349733657727335,0.8134808163141642,0.9566354061999924,0.6761814126102799,0.8256109894334339,0.5697809263453317
19,3.517380144603197,0.4992748645141592,0.8066567184721312,0.4269316643126383,0.6997828653384675,0.4964542024201788,0.5452191214741376,0.029264720041473374,0.9494668926366276,0.7611830089573756,0.9639973671003553,0.6437089106536842,0.9162477517224686,0.7399232597634016,0.532401905667812,0.03552333960524012,0.7636008491742607,0.6487062384766121,0.9317724754014013,0.7273961363513842,0.7215001315314907,0.33525418769996773,0.6459485439402404,0.19116791192593982,0.5620108250506637,0.046887397926854306,0.9582969383245061,0.8873784725635833,0.9237338000920189,0.4699537530732102,0.7953045536343009,0.27896996322281975,0.6207795562181642,0.10040638120482895,0.8723172845296392,0.5745327456965468,0.9347276985010282,0.635267998090062,0.9104645301158772,0.6498243808395441,0.9887081165646308,0.8713063243493486,0.8021468962745111,0.4775020498587346,0.4368131868131868,0.6578851897406849,0.41177323914373626,0.9445555573220561,0.7042845753755436,0.8716073207171314,0.6269377197620556,0.7180501153526857,0.5563938442124599,0.6878531590224627,0.260907042642783,0.9218470147496785,0.7780120050978346,0.9833597972204648,0.7778819492982602,0.8264511648750235,0.5880271965046676
20,3.4818893808707436,0.624227158232196,0.6577045386222957,0.2847719140884755,0.7046678396981074,0.4494545481953097,0.49251259678909376,0.028167485299550554,0.8701050033829449,0.641900190294997,0.8719227985403044,0.29150233451565677,0.7553353536064918,0.4046375011776555,0.4735294634364263,0.0355304660603923,0.7263369548117983,0.5291358100937797,0.8752726649064226,0.5904850991398368,0.7753778405743106,0.45142493047584054,0.5338954704994706,0.09926797014810046,0.5399287029427838,0.05028636873751677,0.9469125490434361,0.8321378106738374,0.835837978588934,0.4642389851478597,0.7844192551443548,0.2664161365490771,0.6644805353450093,0.09454076330037495,0.7929939667794639,0.5376145326798183,0.8926518107232551,0.5852763024660554,0.8329859543805662,0.586079969234195,0.9642811003305409,0.7863905589925646,0.7495576189073005,0.4004629838635447,0.5517399267399268,0.673856694825312,0.3795434849222001,0.8682029920984435,0.5924923510332484,0.6979914150217312,0.3325263326678787,0.6760874226586615,0.45974083313859126,0.7569688522603322,0.41976072973675543,0.9156330404404008,0.7523892531668249,0.9529842167723155,0.6717476035753999,0.7916749477253139,0.5154572268915569
21,3.4804278578196635,0.5627814670635829,0.7999430453789792,0.36939031051131854,0.6533777865792665,0.413495533565794,0.46132261185569867,0.016863267458161198,0.9044215310871362,0.6283798325082681,0.9226121693428595,0.41741941708787245,0.8215141142769427,0.5019985242322033,0.45266418283167226,0.03320068059997354,0.6565945290212927,0.4855379069004578,0.945719303891946,0.678736407180065,0.6922215490243457,0.3398719223262462,0.594649970403595,0.10456483125532108,0.5961690863918906,0.04356962978150035,0.9706390705517974,0.9219860232837515,0.8958562405934016,0.4483485911817602,0.8146301150144746,0.2380029154247564,0.6549184543231424,0.09964678664761792,0.8375564196055293,0.5273278857042556,0.9300305338458165,0.64702915200605,0.8711302061539778,0.56560316959801,0.9769489972709055,0.7911465958301719,0.7726459958722336,0.4136059691541777,0.4784798534798535,0.6204148056448828,0.34746552910109985,0.8965873861269654,0.5633600978878136,0.7691577440239044,0.4038833770155783,0.6090790934150357,0.39833563126214555,0.6703681429123515,0.26520917643196373,0.928509452993624,0.8057429173020134,0.9721539950132112,0.6894481980606867,0.7808958028757107,0.4962064181516145
22,3.4127776418767004,0.6745286619342035,0.7802734184000552,0.3996990877459499,0.6630462742415486,0.41733855765167416,0.5806312892875565,0.042635617235683036,0.9671267276134902,0.8311442752863234,0.970151391729568,0.6718982592434332,0.8945808691026411,0.6666904623801646,0.5359856993346601,0.05706238725031375,0.7647563002859232,0.6346195732309479,0.9576298532871181,0.7804679074827944,0.7960814923884332,0.5108742229408678,0.6546481362601815,0.18732938835223725,0.7186537919022679,0.11405606822041271,0.9727002890791668,0.925935053181965,0.9285371468028377,0.5341742894645747,0.8546634163993426,0.3289773292349867,0.6897288847516047,0.14542256440771043,0.8505889492379045,0.5952299957394441,0.9369138887624688,0.66494293032744,0.9028628286948415,0.5688112970610504,0.9935688583068089,0.9048036623474555,0.8206564752934209,0.49910564643927147,0.5446428571428571,0.6230338938012262,0.33316057567418833,0.9555223453473028,0.7659497202997075,0.8520944630568634,0.54661647970771,0.7185245405385572,0.5316841433672072,0.7488531978971102,0.3936220532524209,0.9292404339359429,0.7961813917746918,0.9878204094459537,0.7953718209925205,0.8307270405747081,0.5946551692954923
23,3.3588757047980042,0.6027784138615373,0.85637439015998,0.4382248521526908,0.7194254237676815,0.4790325842969191,0.587106541587618,0.03309549180932431,0.9166361822475376,0.7163673635422375,0.9541330723971744,0.6118200745931006,0.8278018982453776,0.6038328991242687,0.5266150051575759,0.03880720138286008,0.6562760075835348,0.5429672919481862,0.9711658052481245,0.7739941017491649,0.7415899598025482,0.3690484902065658,0.6244211193277031,0.14572885705907965,0.6469448158187746,0.053837583205506113,0.9399271628151911,0.7928523782288774,0.9369882863703486,0.496604650554557,0.8063407108207495,0.23227269308601575,0.731736770509069,0.1276438669232539,0.8866527813499689,0.5061165525442588,0.9430938895071971,0.648849942300695,0.9070958713193262,0.6643320524506395,0.9794783023183495,0.8240803538556639,0.8079901998176915,0.4549754640506932,0.4896978021978022,0.6856417959370719,0.40565654606885004,0.9070513839647689,0.6286083913532574,0.7661201783773994,0.4893268759602537,0.619478608154036,0.47033599507435647,0.7109212605447481,0.3099000734507659,0.9031459159621346,0.6953982301647297,0.9719007273433979,0.7585387950270257,0.7948942671833653,0.5368235581570341
24,3.3389345338695624,0.7143729486298755,0.8679695903975775,0.5230932230253665,0.6531603985984064,0.4854451100654881,0.6780343763387275,0.056461186465533365,0.9525592418974431,0.7858985782517186,0.9905051687048101,0.804766892875685,0.9460080915769039,0.7984481122195471,0.5431449730576268,0.07118388085858382,0.7657184166695048,0.6615119343610361,0.9566797873309011,0.7026467090845009,0.8041127397473881,0.5186594230868056,0.7140308636314373,0.31170775630966074,0.6619899054324228,0.06645606909151858,0.9728081908815901,0.9167712061943186,0.9329084014436626,0.5154703329656397,0.8299282137547923,0.3292629311614317,0.6580067302845376,0.12908445568898852,0.89536800291827,0.6706014302871145,0.9433284788104213,0.6665948339962054,0.9164737027653034,0.6549705879698328,0.9821000579917563,0.8475838238594062,0.8332417666116742,0.5258309238909191,0.5817307692307693,0.6057098826820353,0.3994407497291852,0.946546844941891,0.7410175783538864,0.898173640664614,0.6169480834062308,0.7064924871690204,0.5301193133573013,0.7620328467904405,0.42587331638186415,0.931014946167784,0.8001699931421256,0.9733179925487617,0.7451972342776205,0.8318983772806495,0.6083951812354591
25,3.282438583514516,0.7304785894206549,0.7075105850480086,0.33877060860835745,0.5761906319490603,0.39160204694362966,0.6050494983141139,0.05040465982348402,0.9213596466767152,0.7005870407234996,0.920550992255139,0.38893554942333997,0.9162988625365254,0.6413319261683242,0.5255886663838993,0.03792296058937894,0.7028048050677993,0.5372218907112204,0.9621385906331585,0.6904695707594513,0.7758244524778509,0.49109077785269517,0.7245493426263266,0.28689885938700116,0.6127737778377429,0.07623407017999488,0.9819508779056005,0.9465257893204687,0.8985221671384588,0.4869760113906547,0.8043448282606995,0.41279267432895517,0.645135899596834,0.13496362395502054,0.8726082710091062,0.6383939087564215,0.9339159450390775,0.7311827905310343,0.8457247019053675,0.5233095002284137,0.9812059283663735,0.8273036261195232,0.7957024235513929,0.46664589429004344,0.5652472527472527,0.5367082071657361,0.29239459117172467,0.9134572886691362,0.6481195969162299,0.8716271278522274,0.5034611338601612,0.6550808500782013,0.4254596174460371,0.7297903284450369,0.3462371060615216,0.9301713402021448,0.7894710749213638,0.9687757144215778,0.6939542507421329,0.8008015509762945,0.5284424815884531
26,3.2149833668443906,0.5371345698801618,0.8308378939285831,0.33452641520342113,0.5816945276447827,0.24780251571458545,0.45008822852280245,0.023340485729076134,0.9185444090413424,0.6711753223173409,0.9554268248087743,0.3961717500665104,0.6658273268155365,0.17034483360768804,0.41063088070313697,0.022554562348042612,0.4229590219899806,0.2026605088032294,0.87758420269203,0.440808456031439,0.631600857275834,0.32294393878660294,0.547754591611295,0.11559888648635178,0.5843883430708365,0.04261254914804115,0.9560813306020776,0.9001235752483183,0.8585400037856794,0.425114608163948,0.7518313316641889,0.2138469493384369,0.599265038328885,0.11824233872947298,0.79851295990909,0.46972009617277777,0.877327171399137,0.43428873963104014,0.8064953164794687,0.41667637868992935,0.9423512115234303,0.6771190619442908,0.7233870735898444,0.33228359860802714,0.4226190476190476,0.544522509678374,0.19120761453096125,0.9069611599548484,0.6200730147433816,0.6253225733429917,0.1711369906045242,0.3988514037252267,0.19783489419198128,0.6051707854736876,0.2155732511815078,0.9105826035189402,0.7812623468457834,0.9259145547244242,0.5825350197662674,0.702475084345499,0.39423187598062953
27,3.2013512780835414,0.7049080222883749,0.8463418653589136,0.5046036633437566,0.7166516215725673,0.5218829800062192,0.5746964457966504,0.06564775149464959,0.9448701969152825,0.7627089334769236,0.9624670572302602,0.6215884404041464,0.8397002478959951,0.6004585931623706,0.5443595445270716,0.08142524481180369,0.796591463820084,0.68945165248262,0.956159548406358,0.7749817957679368,0.7612014241110912,0.5077610759518747,0.6565156277355833,0.30026817257651944,0.6711223068546843,0.11100257951893754,0.9825904922669451,0.9498277283327751,0.9201331509968602,0.6087061425135497,0.8466016450199515,0.42875809064491954,0.6988584854755343,0.19375947188081266,0.8752918690207825,0.6667543852705139,0.940580432686937,0.6938386717877115,0.8812650941811007,0.6572364929027918,0.973205947576893,0.8444241428085707,0.8194602233724773,0.5292543004569701,0.5608974358974359,0.6484446976194302,0.3825574028951404,0.9331420213357924,0.7115864835165463,0.7757301758873597,0.4588300832887309,0.7304198562563352,0.5532371107689874,0.6980285980201371,0.35093542769403335,0.9264697311023482,0.7874170032118268,0.9499842870670155,0.6768641101025632,0.8088884810412026,0.560203945925404
28,3.1487976695533817,0.7046027020838104,0.8258905384701752,0.46905493082328154,0.6689620138335464,0.5196060255640091,0.695350043567842,0.09631092535344965,0.9293331415597358,0.7738715822822242,0.9874359743872329,0.7039591294865145,0.9291808389489703,0.6945023608214661,0.5192176170744623,0.05410778459626937,0.7478354489708872,0.6784117703250103,0.9284598429331565,0.6231393048497714,0.7628416991726015,0.4890222672056995,0.6715275079826925,0.2738124183438418,0.6964016553073821,0.08412224937855209,0.9715203749622315,0.9079440554732174,0.9242250877122089,0.5560964625825878,0.8544822392614035,0.40804212907850423,0.725550436195962,0.16236103393355264,0.8647748342923616,0.6455497922404354,0.9413152309277241,0.7344221941505421,0.8766090850084511,0.6558341286732539,0.974463276089987,0.8319129857291867,0.8247688443329508,0.5181041765445684,0.5400641025641025,0.601347652924675,0.4001173376513065,0.9153627243676371,0.7183563523556565,0.8752468817910177,0.5464093781257147,0.671158847298729,0.5368502645576178,0.7165357886865629,0.3251467666059543,0.9087405162731068,0.733126189852148,0.9536241052931911,0.709004560538257,0.8060023595192742,0.5670015499552363
29,3.0615773994989426,0.72139531333486,0.8747067153935031,0.5044209678889798,0.6661239263038079,0.48137548704595867,0.6999235741367301,0.083686048883753,0.951654157353172,0.7786729566996785,0.9846714297603406,0.7390721100288008,0.9153184408842752,0.7009203854661187,0.6076465140559628,0.0788191678831417,0.7577234150558142,0.6412562146981707,0.9691521820603324,0.7679238737219716,0.8392006099252116,0.5868047524259632,0.7550981683576914,0.39825842868740274,0.6613960472142837,0.12077073152086329,0.9884787427345242,0.966147433504019,0.915738501707455,0.5805548841728743,0.8078404956576167,0.43737309595809093,0.6760324696441742,0.20329068567910064,0.8881623472573138,0.6463422316846739,0.9572691653668407,0.7712570140652438,0.9021170567129362,0.6133893246307911,0.9853729302165867,0.8819207647236295,0.8401813444899288,0.5491128279684613,0.5535714285714286,0.5952834534411732,0.34427816757359075,0.9451994467320627,0.7330804464704899,0.8430334061481348,0.5468823381296092,0.6879858916556206,0.49723420973602966,0.7596609216035564,0.3654501097374342,0.9213839159249747,0.7840812804127459,0.9578738334181005,0.7345656557158472,0.815774409846232,0.572224601110821
