epoch,train_loss,train_accuracy,train_1st degree av block_rocauc,train_1st degree av block_prauc,train_anterior myocardial infarction_rocauc,train_anterior myocardial infarction_prauc,train_atrial flutter_rocauc,train_atrial flutter_prauc,train_bundle branch block_rocauc,train_bundle branch block_prauc,train_early repolarization_rocauc,train_early repolarization_prauc,train_left anterior fascicular block_rocauc,train_left anterior fascicular block_prauc,train_left atrial enlargement_rocauc,train_left atrial enlargement_prauc,train_left axis deviation_rocauc,train_left axis deviation_prauc,train_left bundle branch block_rocauc,train_left bundle branch block_prauc,train_left ventricular hypertrophy_rocauc,train_left ventricular hypertrophy_prauc,train_low qrs voltages_rocauc,train_low qrs voltages_prauc,train_myocardial infarction_rocauc,train_myocardial infarction_prauc,train_myocardial ischemia_rocauc,train_myocardial ischemia_prauc,train_nonspecific st t abnormality_rocauc,train_nonspecific st t abnormality_prauc,train_normal ecg_rocauc,train_normal ecg_prauc,train_premature atrial contraction_rocauc,train_premature atrial contraction_prauc,train_prolonged pr interval_rocauc,train_prolonged pr interval_prauc,train_prolonged qt interval_rocauc,train_prolonged qt interval_prauc,train_qwave abnormal_rocauc,train_qwave abnormal_prauc,train_right axis deviation_rocauc,train_right axis deviation_prauc,train_sinus arrhythmia_rocauc,train_sinus arrhythmia_prauc,train_sinus tachycardia_rocauc,train_sinus tachycardia_prauc,train_st depression_rocauc,train_st depression_prauc,train_st interval abnormal_rocauc,train_st interval abnormal_prauc,train_t wave inversion_rocauc,train_t wave inversion_prauc,train_ventricular ectopics_rocauc,train_ventricular ectopics_prauc,train_mean_rocaucs,train_mean_praucs,valid_accuracy,valid_1st degree av block_rocauc,valid_1st degree av block_prauc,valid_atrial flutter_rocauc,valid_atrial flutter_prauc,valid_left anterior fascicular block_rocauc,valid_left anterior fascicular block_prauc,valid_left axis deviation_rocauc,valid_left axis deviation_prauc,valid_left ventricular hypertrophy_rocauc,valid_left ventricular hypertrophy_prauc,valid_myocardial infarction_rocauc,valid_myocardial infarction_prauc,valid_myocardial ischemia_rocauc,valid_myocardial ischemia_prauc,valid_normal ecg_rocauc,valid_normal ecg_prauc,valid_premature atrial contraction_rocauc,valid_premature atrial contraction_prauc,valid_qwave abnormal_rocauc,valid_qwave abnormal_prauc,valid_right axis deviation_rocauc,valid_right axis deviation_prauc,valid_sinus arrhythmia_rocauc,valid_sinus arrhythmia_prauc,valid_sinus tachycardia_rocauc,valid_sinus tachycardia_prauc,valid_st depression_rocauc,valid_st depression_prauc,valid_t wave inversion_rocauc,valid_t wave inversion_prauc,valid_ventricular ectopics_rocauc,valid_ventricular ectopics_prauc,valid_mean_rocaucs,valid_mean_praucs
0,4.768558494913887,0.46610269063564796,0.6734200068432601,0.12629421332092172,0.7085167586084048,0.017915887490675807,0.9587084347763687,0.7637405772384749,0.8600111494940191,0.292961356948076,0.7480457392743176,0.011702736149357205,0.9186257563045332,0.36949360467897296,0.6516562666104652,0.012943852365238418,0.8213746564915646,0.47133582787839634,0.9299777449173701,0.3280261077312685,0.6727407527723261,0.1128334239053534,0.47329351552844556,0.018106508914073866,0.8219283374179585,0.42527962612712183,0.8492173206250309,0.25902680241340453,0.5175889196002794,0.009900380338617024,0.9345229153982701,0.7510937519014328,0.6815473385421793,0.13410749934607458,0.4739124133587802,0.006782985553609368,0.5874704629593408,0.021647649648534162,0.5325189096966805,0.04785248170396972,0.4095610723206411,0.0135678342641478,0.7927259701897678,0.36721832192495407,0.9859885659823944,0.9419271785467676,0.661965897971602,0.07748708853804197,0.5649368571308409,0.02173848693451827,0.8131109038100358,0.31252936183933416,0.7637239562153989,0.09321661352911395,0.7233496393400105,0.23110500612424809,0.4563397656181161,0.6570056529877017,0.11886788715740403,0.9590735701298855,0.7553816632830737,0.9122783132584614,0.34533900137972545,0.8135802704271611,0.4356674000136649,0.6583788834760574,0.10752944516371313,0.8180623441520593,0.4221853211121496,0.8391539783348432,0.2716715869195979,0.9259798982944281,0.7309638011723975,0.6643874709594503,0.1094004234299225,0.5759170407057731,0.05468025603407024,0.3946853833299948,0.0140458658880897,0.780468843065738,0.3482867009706482,0.9832246194635367,0.9300626100716414,0.7096687444413776,0.09739489153106184,0.8054388910537972,0.2893814339626327,0.7433540104922324,0.08487517927293561,0.7650411196607811,0.31973334171017054
1,4.283041751506592,0.4662201856421102,0.6887053539333011,0.26377385166835715,0.7101862884842689,0.01750136416027852,0.9813904642615336,0.8793335494730241,0.7749374016852669,0.1664716518655695,0.8443827561753929,0.028398566700187308,0.9229185641558371,0.30174157905450427,0.7226205134323804,0.013352488991098404,0.8354781332542495,0.4334499634485051,0.8960804303887766,0.38913535465144206,0.6837611661336269,0.11217959451456125,0.4828379779133277,0.024643419721069093,0.7961840211478265,0.4182522206906524,0.8421773190464779,0.25452747403997983,0.4929825485054352,0.006871454991458412,0.9538512029063101,0.8210393907616178,0.6874075860948509,0.1985188765751157,0.5354071149918901,0.015889561732237757,0.5275909221667174,0.015580998637158611,0.5033139558280603,0.047621277706725265,0.5763214406423371,0.021692599793905337,0.8498501776915636,0.5486671966598681,0.985539443874887,0.9376869975936416,0.5089832033621138,0.046551078760150924,0.577056086078378,0.027396916514626352,0.6817481498350817,0.21325682524137624,0.8444524023349314,0.253605168197827,0.727160177858647,0.24835151623634374,0.45448938232443387,0.6803087131257621,0.25533506026304753,0.9805868154996508,0.8793780623723394,0.9268910936319763,0.31178022004653505,0.8270203167105701,0.394759074398708,0.6553850207475818,0.0964861968879625,0.7880381359792745,0.40148896841793574,0.8236033505338258,0.23728388277127713,0.9454089288889116,0.7900742359982394,0.6716330263136215,0.14750304224233082,0.5237481761046225,0.05505617312018556,0.5575116393816495,0.023278368709361754,0.8427375069619392,0.5069971552942542,0.9816097994917331,0.9179144273248616,0.5552563483301132,0.057751554623366314,0.6702585702304263,0.1772797347420053,0.8613662240365061,0.2669386208445973,0.7682102291230103,0.34495654862856295
2,4.090484282536507,0.48360944659851957,0.8098025075365243,0.3499684061004024,0.8103693414083778,0.02400096842721601,0.9891437039137202,0.9206600931876817,0.850550623856318,0.40999596060289545,0.8516456388133791,0.03865961205625264,0.9169599742777942,0.4339519918534896,0.6599324652411882,0.01709020397668407,0.8425342131283622,0.49752309301382214,0.9400193199381762,0.7052604579010635,0.7740637733482898,0.2041762188251588,0.5484852788741379,0.03140916088417975,0.8870565769751743,0.5793430798788424,0.9214360600458731,0.40431592018973994,0.6820871596013593,0.016816278851338365,0.9555150278125574,0.7968569457034336,0.8311438114546812,0.2795722552671959,0.688561086484962,0.03312487154166645,0.5808424403187404,0.023918231002577728,0.6712721928010266,0.1273636269126369,0.7217289861673275,0.03822920349496077,0.8818387307844608,0.6280052221316241,0.9878573584168961,0.953859734162477,0.6470617701656614,0.07770204576604522,0.6392190679298412,0.05186910741773611,0.8877189537711928,0.42849776851920685,0.9053478677970993,0.355705211434859,0.8031613050331969,0.3241490641962764,0.48497664992510353,0.8022531249495616,0.3168042349886135,0.9879795447073316,0.9101479473853598,0.9239239627480336,0.42889616683946524,0.8273295293423987,0.4410903095820116,0.7445913398274926,0.1760026372132334,0.8787030534486051,0.5477442827195329,0.9035031585125476,0.36976336686563227,0.9457969870205103,0.7587699067187152,0.7941197212107232,0.19752961464220994,0.6853243061260396,0.13004443105750113,0.70672010072867,0.036328223175290164,0.8673259813739876,0.5593334294668159,0.9828337879825483,0.9350139093058252,0.6919427768577299,0.09848559360109606,0.874495135370913,0.3850760900676995,0.8964954793151211,0.3678168333111884,0.8445836243451383,0.41617793605876185
3,3.9616683190836217,0.5425331923393256,0.7789709915418035,0.43525433483237347,0.7422846983879339,0.02265668064687777,0.9886930636065281,0.9338632188007802,0.7346358254592928,0.15470337425622593,0.8664115500531852,0.04805441731073763,0.918683965681327,0.3836984972050424,0.6265581135841638,0.011002448309492473,0.8298071389818152,0.45457661560216733,0.9061552579954819,0.43841577592826103,0.6784067324249099,0.13828612812321042,0.5057441045728183,0.03255857072044133,0.8492782576763511,0.4559956651631694,0.8700407998889309,0.31959981039635865,0.626053856304441,0.016437960957598873,0.9590663571310662,0.8339178229417042,0.7357557290878496,0.29277562218321346,0.6955724014547544,0.07461979447406757,0.5523965657813236,0.014999828565444902,0.6095321344694689,0.10157500835718652,0.6131581442126175,0.03997254447815672,0.8924479254023171,0.6845231939050817,0.9833490288124264,0.931308706162786,0.4702505787780873,0.04765778796864331,0.5929978268118496,0.03295761612436342,0.7565690382374043,0.30232975898010817,0.836326221639858,0.37859107761568817,0.7545825503068464,0.2915512407695839,0.5150233500748964,0.7725421024305565,0.40093818189752445,0.9860597814246613,0.9239823325921304,0.9229691436480332,0.39515353852762436,0.8210573720882004,0.41042986314758323,0.6403287041136625,0.09338725411101131,0.8384593468614738,0.43927536512604953,0.8521281368847093,0.31821922364505806,0.9459486534824366,0.7902194200690088,0.6937850752170832,0.23575417309846355,0.6048389283763065,0.0818258907367055,0.6051364164145415,0.04073680498655147,0.8734696883069842,0.5933339937132935,0.9799800394206274,0.9082305610711516,0.5075685435642653,0.05770029892863447,0.7354717014415082,0.25366238971367455,0.8434863213982073,0.38212331486507456,0.7889518721920785,0.3953107878893462
4,3.8637074046235234,0.5192104335565738,0.833956095758092,0.4680954431956777,0.7486523790111933,0.01986026955529533,0.9889325643100303,0.948942329209771,0.8407998269088091,0.15225171127833703,0.8943091833116652,0.14530633172801563,0.9287008564434429,0.4265941965902589,0.595461122404122,0.010763093980747396,0.834563535548879,0.4649394397489112,0.9579471079538698,0.5553638132878532,0.6688496342582719,0.13642616108521052,0.559409983853606,0.035245341413648816,0.8611779246828282,0.5220359460727598,0.8665953108418062,0.27811838108703624,0.6172940902509897,0.010847722755230457,0.9715865739725341,0.8762009213840346,0.7847781342348648,0.31048836675565794,0.6872517460752755,0.06632659490218984,0.5714848766945639,0.01658021725881103,0.6575854439486655,0.1367876186792999,0.7047333418516656,0.045532494455746544,0.8929000797751644,0.6674181204067879,0.9850441321141404,0.953537091429264,0.4642598262254084,0.04529661879056891,0.673481265420849,0.08432961645903297,0.7595685045128027,0.29535945809261077,0.8859691844113842,0.4510253137641577,0.7782804894144201,0.3124489466679583,0.4936998854524628,0.8245183383989638,0.39913311626471637,0.9841993031046045,0.9338468924324014,0.9340805060405537,0.44373861275721754,0.8259869083978538,0.4127173344831854,0.6428927380058171,0.10943777986137397,0.8495570757131238,0.4928499096208628,0.8524035737670437,0.2721187823253191,0.9585614258246751,0.8331434722745671,0.7354784070125718,0.24527684904675684,0.6678494702600879,0.1497077346978489,0.6729639428475794,0.03813409880476167,0.8729722952493348,0.5398197781831375,0.9790721819142894,0.9364819463715798,0.5121484650535161,0.05988127767958852,0.7267947490550576,0.23805179687277006,0.8929161368502684,0.4462817638384899,0.8082747198434588,0.409413821594661
5,3.7808369196283453,0.5374221595582188,0.8579923508437131,0.5116388638687998,0.7814913979740193,0.021048291756929828,0.9908313369897105,0.9401981232319617,0.7875964128568471,0.17957138268419043,0.9050939605247608,0.1654107042381453,0.9330035506285153,0.4691519943564888,0.7138879625197003,0.018309289766476777,0.8777182075407636,0.5243202954106133,0.949833179764594,0.6735097665821327,0.7632256631325293,0.18945203464260135,0.573687457640633,0.04925131410350922,0.8985187195914383,0.5921163654666235,0.9073947837382417,0.3986905388694886,0.7314724255586267,0.027550487003970676,0.9754478905607563,0.8920541457522604,0.788400296420581,0.269749792694414,0.7521992937217851,0.10520167695396995,0.5532768581021626,0.02008488963105004,0.6675077510503618,0.17812973057734585,0.7092181665114132,0.07767252365695512,0.9085378318968792,0.7346003573013111,0.9882085685879213,0.9575103604568259,0.5061928071220168,0.06451792294898437,0.6565662400565564,0.07106096663512135,0.7203144855259456,0.29830943324215403,0.917123441191273,0.5234323490980094,0.8005669630789132,0.34432860003578203,0.514142215173143,0.8492944757448034,0.4289452046660883,0.987175632692026,0.9188440415278393,0.9320098467133145,0.45166330298745455,0.862445959008449,0.4559990674761452,0.7206801466604166,0.13321214875916795,0.8855629365308001,0.5555095360705975,0.8868204618009968,0.3639487956940654,0.9608832988022102,0.8299297011263852,0.7405773508427937,0.2001578865950187,0.660440288013419,0.13916596006673104,0.67842983462496,0.049305580440398684,0.8751496514836925,0.5897179039183215,0.9823913866156426,0.9349138394141666,0.551427607568927,0.07500166436493502,0.6788356962906301,0.24211041696299954,0.894835055890338,0.4873557406576693,0.8216849768302137,0.428486299420499
6,3.707658409974281,0.533632945599812,0.8783713513953598,0.48937265928726575,0.7054425571874178,0.016725262780010623,0.9923565211997414,0.9463561966568321,0.7847811860673044,0.1667997946140462,0.8969892743174567,0.21486704386902356,0.9407937729557279,0.5127530347025293,0.6665736562118433,0.011394931381247623,0.8655999730805795,0.49597029318945357,0.9608514148139341,0.6722510773020384,0.7488572412457596,0.14515410731350017,0.5502433670214887,0.04119159812606644,0.8259564252697409,0.47382788337644655,0.8633370610006125,0.24821291699395576,0.6544742446179131,0.014394882707535974,0.9772307823818874,0.9043980420401241,0.8187342972060425,0.3419451766157754,0.7424845435226058,0.13194872992169837,0.5398903456235016,0.017476465887307183,0.5957938337857493,0.12378712614835888,0.7953892809153635,0.1355570081516032,0.9071152120712277,0.7230260702581458,0.9888379506176267,0.9559314931069375,0.5387597199798803,0.06351547474229507,0.6316571254335862,0.09049722401173416,0.6851601719457803,0.25791016360837915,0.884770007017565,0.45750007819005717,0.7861712044956038,0.33279864365316797,0.5037448233324522,0.8659153281844042,0.42557823777731135,0.9897730798736134,0.9234022551226844,0.93597159967253,0.4918961893725017,0.8486051327831805,0.41807766851543426,0.7166067966365449,0.12488236671769593,0.8100104972429725,0.4392194527209512,0.8401179014041982,0.2115696678977211,0.9581230084424966,0.8304988536280797,0.7665459458568816,0.2454049021158142,0.5948169291885435,0.10980760993120296,0.7632104488651982,0.09380410219553875,0.8717384079271289,0.5639374233060034,0.9832583674035852,0.9323215118974073,0.5775262980341644,0.07129710739460325,0.647099263450094,0.21144449815360425,0.8762693180646598,0.4345487625850236,0.8153492701893872,0.40798066308322356
7,3.6465242525312935,0.5609505346022794,0.8759643677366903,0.5250700463593618,0.7517546115716618,0.02027775055655079,0.9912758946456157,0.9319363923308486,0.7961087202458615,0.21039726494780608,0.9208784422645078,0.2572900657844402,0.9549351169566327,0.47782121741605765,0.7465823089347249,0.020067336023443745,0.8898799088966433,0.5211235900327902,0.9649496938532875,0.7195771123191074,0.7305758804037891,0.16197787528853624,0.5755232129330622,0.049011923229316565,0.8584176780845916,0.4723588557467354,0.8235070193306173,0.2670975431014265,0.6360298609212742,0.011892752817090589,0.9806276326427237,0.9182314142676953,0.8200101677048302,0.30691826843989795,0.6980620942558657,0.14000962722056642,0.5435851271110733,0.030170932644316376,0.6446961471004456,0.12582037495416068,0.7674112479081998,0.14816831210014675,0.9001213168570049,0.7408669296351615,0.989159539484304,0.9638377219754216,0.5021287995778412,0.05654066401995324,0.6333639017451596,0.06203726951422016,0.7406405101287123,0.2844524309659865,0.8758854633286385,0.49350977776490135,0.7927721024855293,0.34294090190215154,0.5186360031720857,0.8415677426284918,0.4294867619260743,0.9879065278157386,0.8896976269848085,0.9473802405366164,0.47566724338225763,0.86715394312441,0.42612917980987264,0.6972633379301462,0.1251171208896352,0.844844254578217,0.42434254927740517,0.8033463354808504,0.21328047237891568,0.9607771837910032,0.841982952168289,0.7609372065050832,0.2083258882631178,0.6385745439104052,0.11645992876261482,0.7415909857552526,0.10411475649273073,0.8604204769571542,0.5299313719103934,0.9809384050799372,0.9371319570362594,0.5502187030392247,0.065566465898273,0.710257896703406,0.22592028167063608,0.8569699308337455,0.45427398215179216,0.8156342321668552,0.40421428368769224
8,3.5843800641495647,0.5353659969451299,0.8174959949980182,0.5253808943865821,0.6998918525097274,0.02109725565182917,0.9927684362779864,0.9621792038033893,0.7803175438065502,0.1861628429554268,0.9429532561162983,0.32896417026429814,0.8715668727789009,0.3938290698331768,0.6120382137885136,0.011329936705924342,0.8420833085041811,0.4813472295554604,0.9446861253120914,0.6550225645357155,0.6802713115481778,0.15302914514692795,0.5571275365785591,0.06318537406082031,0.8121817566912621,0.44667582259137073,0.8372690890798367,0.2859631116941257,0.6063413284195108,0.014843833859196088,0.9785783772060394,0.8998136682709583,0.8229446159055007,0.36841565726615544,0.729754482349638,0.14874936920355836,0.5531170770723615,0.07603735439997356,0.6091151056673214,0.1362180704116955,0.8001564728333896,0.2194165926056017,0.9158009885334286,0.7690813006107906,0.9874520120310014,0.962622572700394,0.49431543470766504,0.07104091037838213,0.6616043015156491,0.10611362004618273,0.6788339661355166,0.27805816055412835,0.9023317817604143,0.49280112271182197,0.7742691246972131,0.34836072516168787,0.5063882280377126,0.7956294952717379,0.42849154080376844,0.9857123240101459,0.9263114892441332,0.8630618212575026,0.37664089134360157,0.8212578434522944,0.38740065045143507,0.6320471649099907,0.09322767459192755,0.7905178479725377,0.38175903431090136,0.8214645269525274,0.2272041341779985,0.9534568424411378,0.795027415992435,0.7599518874297672,0.2339358108449868,0.6049280561739934,0.10628859909593003,0.7643589950372747,0.15056218290764098,0.8643314590945029,0.5386586198204979,0.9781515836126069,0.9370776898976144,0.5372896348943479,0.0640323087182435,0.6309873745756379,0.21525727349609702,0.8971577809421493,0.4735879216033606,0.7937690398767596,0.39596645233128575
9,3.528731148358644,0.5689989425449419,0.8779816233282648,0.5729262711020644,0.6999179070945017,0.023952924145716814,0.9958961444280666,0.9754430508676195,0.8005128112839751,0.18073350645306957,0.949474057440019,0.4472797707555235,0.9256603262312763,0.4624422373942658,0.6924615321798652,0.01945687581877972,0.8810299285405447,0.5461637217781972,0.9680847253596481,0.7286395712981134,0.6809420460516673,0.15934342162474963,0.6125144769365705,0.08589690705201292,0.8095837310094922,0.4351713201044231,0.8266946503219867,0.34499714608426196,0.6648364702825111,0.02291073272714722,0.9841956320896414,0.9337513743162584,0.8690200955389762,0.46604123051749546,0.75448394998568,0.15744045482859992,0.6357730011140289,0.05426944249307834,0.6023060478603656,0.16149500757794272,0.8163017694774415,0.14358851825150223,0.9233052211669074,0.8112747352014273,0.9718291393873754,0.9397553369162224,0.5125994055079762,0.08189327657016705,0.6868668314561287,0.16341790018133495,0.7289900186139521,0.33196323373471504,0.8924892422863413,0.5285611101640182,0.7986057994220463,0.37610804145995025,0.5190765706229624,0.8383524910825052,0.4317439259685705,0.9906059741813327,0.9394921991655687,0.9208351614055877,0.4094309178336061,0.8544883934975327,0.42939198859710764,0.627810645574582,0.10068445137167778,0.7852607332936756,0.37608045378505267,0.8070258244871232,0.2758315670246235,0.9577379674506062,0.8266614023682228,0.7995455668880065,0.27844543976022573,0.591776993320872,0.11783478883683801,0.7757750843958146,0.08334697238095594,0.8606548871177899,0.5610954713856099,0.9613103756335322,0.9162555328787166,0.5456980096298341,0.08644817818432136,0.6638086670098448,0.2519067743083848,0.8619295352906281,0.45038846992405773,0.8026635193912043,0.4084399083608462
10,3.460384284157182,0.5198566560921161,0.7850395116378392,0.5026451160262917,0.6432080369349794,0.021955384496532716,0.9882114231851606,0.9572710225634833,0.645356926960589,0.059985795634424785,0.9274762882637985,0.34682467569619513,0.8821922817314013,0.24675140915504234,0.5386793094056247,0.01049634734924778,0.740903119707926,0.31434903593148383,0.8966262186422543,0.4346152383027974,0.6778496735368251,0.1951181287397069,0.6194269026830921,0.08761567779255813,0.7433232825178496,0.43681299218676434,0.8439666944339842,0.3565556519904053,0.6368423290708624,0.034500797207932976,0.9690590251529401,0.8791841479909099,0.8759943217611158,0.5106398164298678,0.6795566345739357,0.14317177150007143,0.6314322315289053,0.09821840663427137,0.5805348174084436,0.12135683889708221,0.730545588877806,0.08228736736225983,0.9333397724113652,0.8244103680212258,0.987412063994678,0.9538527762458491,0.5239265811823568,0.08003702984201783,0.6720133745824355,0.14751236496168046,0.7405683316804423,0.3375298823518946,0.8818895478837177,0.4863832788385224,0.760591318836551,0.3334646662364814,0.46902810820336593,0.7418097909056858,0.378735873831865,0.9786772851448255,0.9220147319092324,0.8777986466988406,0.24434908806042702,0.7192965449252826,0.24259711298560793,0.6327232184047552,0.11625965788271571,0.7118573720140209,0.356742887241396,0.8190142200916682,0.28748967741418,0.938171497557049,0.762094197570463,0.7933624425367848,0.30434571908376995,0.5588928045591101,0.09640953863558419,0.7029804968275152,0.08044745125976077,0.8644782319816203,0.5441632509851865,0.9766330779865598,0.9221644569872918,0.5642605498819272,0.08836901585291113,0.6764023393838511,0.24339071981234117,0.8737250787066851,0.4352409955248988,0.7768802248503863,0.376550898439852
11,3.406529613589445,0.6055105158030784,0.8548405106268608,0.5040052089814964,0.7240662545929442,0.028154432761302438,0.9944038353242342,0.9725666963656023,0.740000425365876,0.09479958727048583,0.9469201335539533,0.3986997690062362,0.9058928627139347,0.45494084847183913,0.6277094465044613,0.012834500930625896,0.79778032574924,0.5063489395033803,0.9531274521459993,0.5521071152891884,0.7474786836453445,0.22794681321772975,0.6111755471833513,0.12365303115294796,0.8736359135381571,0.6588071113978355,0.8379637237113872,0.3024314618128934,0.7718132207474006,0.06110205386722862,0.9843316433930692,0.9245099030925794,0.8399716582275714,0.4914365093127287,0.7356125868236594,0.15784009451946654,0.6100870651785837,0.06982527437306664,0.6757648742866341,0.21807473696362378,0.74670286442662,0.1513190509136299,0.9223934708519903,0.8168307533974892,0.9833889430874684,0.9603787010655387,0.5317692239395693,0.08700995010651688,0.6753775479448214,0.17048736152569965,0.7795166074302011,0.36674193866506877,0.90171916321631,0.5779427353296732,0.7989786147772939,0.3804151761266874,0.5342320909331219,0.8168567228922904,0.39625410071734773,0.9869450287116152,0.9341257506548006,0.8893828955759897,0.4249172713243356,0.7603012002887178,0.3798318280468713,0.6994986336505279,0.12749635358270353,0.8368956557233738,0.5309211253492929,0.8180316377108078,0.24560599982367307,0.9528717626336225,0.7770527464684093,0.7354012950849386,0.26099024687696737,0.6411850458437673,0.14086139757565927,0.677062765511877,0.06673288330135936,0.8597451084470389,0.5593664459528221,0.9713082597514484,0.9316102331501633,0.5913415830956543,0.08791368758055006,0.7129461515147142,0.2591336386818761,0.8694733488032251,0.4967080689421695,0.8012029434524754,0.41372011112681256
12,3.3362241009822142,0.606861708377394,0.8689032994401217,0.5799362865194693,0.7725048422595542,0.0357288599911379,0.9954299763818181,0.9819743895112513,0.7383675112087998,0.11505821056080884,0.9499788736555963,0.4686211268699313,0.933112743750298,0.44659168728067816,0.7030966919166112,0.027051650430572446,0.8097737590736117,0.47167876103712897,0.9573296873142313,0.6985752270487969,0.6427298801944326,0.21797353757227447,0.6825658314396204,0.14322788497142527,0.889897116590685,0.6450402480597992,0.8699509483680045,0.3993071170802061,0.7536266777362668,0.0836108060263863,0.9824193062190713,0.9122656501367146,0.8629408250298585,0.49465101359822844,0.7717294879924638,0.16872724373207704,0.6973215724311251,0.10010101154396366,0.6952470152412473,0.23277709018839782,0.7819297320022752,0.17217047500046032,0.9193226706828006,0.8002297098855096,0.9850635786122789,0.9614989050626711,0.5553072868644122,0.11395876180748243,0.7309862934687698,0.2182224624345598,0.8005769200021352,0.40616992223628234,0.8483186211832956,0.4646845103353203,0.8153242749638226,0.39845509803544366,0.5270948982289189,0.8173311909454242,0.42773095571132774,0.98810286799259,0.9465877957721456,0.9085959726625928,0.4044690980561451,0.77003696226385,0.32771194124455144,0.6000192273515113,0.09894350009236375,0.8465106361366989,0.5171468633800391,0.8524217029844722,0.33754181454174614,0.9465491133435874,0.7592664100804042,0.7484580909854838,0.245401703510055,0.6429821532746777,0.12346343041364044,0.7218044705284526,0.10544650548141644,0.8540297082538817,0.47089575514736653,0.9711034969691317,0.9347909185674732,0.5955499394301838,0.1047492358115515,0.7323944045940958,0.28612414347494486,0.8382248896911051,0.41853254735054696,0.8021321767129836,0.4068001636647324
13,3.276751927939527,0.5905005287275291,0.8443375855029484,0.5973969237576136,0.7289563707293092,0.04091375664729603,0.995098172921405,0.9685345351302486,0.6913283031091793,0.09431943443061061,0.9622572686443682,0.512097155772653,0.9400775224211092,0.5935839724183364,0.7402184378546723,0.023955319255711326,0.8764007063143191,0.6399634452304399,0.9513159850196171,0.5803736891434814,0.7183527746339984,0.23952068959878114,0.636978182434318,0.17078539555738823,0.7981307688839987,0.4947516278688092,0.850330984998041,0.34453508138226785,0.7198757369890013,0.0854147366010143,0.9861844824104349,0.9331429660933244,0.902647637064935,0.5399364623703314,0.7519694838033938,0.20241767743732,0.6499871132677193,0.1670193254594926,0.602353003635155,0.19132321141036274,0.8488079315290956,0.2947278154408589,0.9414789444076221,0.8627993837443533,0.9893741430700983,0.965449674253628,0.48941273527254947,0.09364783799987292,0.6784180336815374,0.18980383516198282,0.6833293755878986,0.3483820143734518,0.9272070112658563,0.5881479117947663,0.8040318729020224,0.41395937993593834,0.5197814785443652,0.8037998073186627,0.37462477742932754,0.9870173193954254,0.9135421463257428,0.906507899533672,0.5099893987783977,0.8271685336630734,0.45916213860134264,0.6538310420481434,0.120691345271883,0.7647675172956576,0.36847282579577545,0.8271969642996482,0.2656553429267868,0.9462020932179408,0.7421612944866582,0.7984903857244072,0.27882648572981633,0.5648425397883686,0.09141967416985096,0.7780522321858276,0.13709581616339694,0.8530835384363009,0.5461274974746456,0.976005366301658,0.9257144661332677,0.5229366010365872,0.08061736159790499,0.6037525878672125,0.21838730922131933,0.8830081343938126,0.4771109187697043,0.7935414101566498,0.40684992492973876
14,3.204172645608514,0.5890612148983668,0.8642832304823134,0.5597413095443687,0.7271440497497621,0.03624030890951881,0.9874901676414867,0.9403958557002888,0.5860487968280794,0.0792551171382607,0.9668888133790332,0.6346037584947636,0.7882280528346545,0.4100788651684088,0.5824313051064023,0.02177470981768427,0.7596517772014335,0.5049548090553171,0.8696123380097491,0.46567657706568927,0.6921205674623399,0.2803714582699134,0.6642615018139776,0.18284534404471436,0.8351597221590734,0.5527576793323079,0.8554718137954119,0.33576284388861966,0.7237607616424857,0.0775594235243755,0.9942261018475602,0.9748784212849309,0.8877139989672893,0.4890581189535576,0.7468174526998056,0.20359663368671344,0.6204170945471215,0.16021408038334242,0.6663201770791836,0.20845024631224365,0.7655306371437758,0.20568903324206184,0.9334225550492975,0.8462943727600492,0.9823242135531034,0.947129571150157,0.38994813750846063,0.08772323534814311,0.7286940067971898,0.2524870726262216,0.6741841665423791,0.3218428796292482,0.9129591753746243,0.6127657984294121,0.7771196390467688,0.39969798168308895,0.5218080888183981,0.8261423827145582,0.3822347234449786,0.980817485498951,0.8908976467025197,0.7662263839449271,0.3373174714036256,0.7009976929921462,0.34660881991597153,0.6101276745679419,0.12042064533496141,0.7967047527734564,0.4165621666364017,0.8171633436129178,0.24898837969684554,0.9539698788395188,0.7958105494110014,0.7673216786673477,0.2561481075858589,0.6226329045939014,0.1033805121479052,0.6811732947622999,0.11622455222756825,0.8547595213313246,0.5091539784033821,0.9687550953701619,0.9116858796287952,0.4233150665501273,0.06218195080397561,0.6060125115662229,0.19236258345237078,0.8656893017181742,0.5171569560800398,0.7651130605939986,0.3879459326797626
15,3.143686913334655,0.6333274585830102,0.9061254215017365,0.6126488935937697,0.8236895232657858,0.047759714719510134,0.9815400317846581,0.9481695669464025,0.7333433062544327,0.12254517570417803,0.964263384942678,0.6774354114891606,0.917477089530117,0.4832821667851645,0.784414683272201,0.03434878927258041,0.8724957966554785,0.6188294011039195,0.9570350582570444,0.6888332355230866,0.7490917340316718,0.3438754242117626,0.7551110562931068,0.297260350030554,0.9034626557176657,0.7037822563564717,0.9209003148547541,0.48027401037932993,0.8375061000921341,0.13772977600157102,0.9939536583464377,0.9687593479705343,0.9141195430289444,0.6626378407184933,0.7832590323939804,0.2746089416486284,0.7398390670604491,0.203001098312923,0.7422829134105837,0.2535139512522315,0.888765693653293,0.4001533412537142,0.9397458839061221,0.8575355418069441,0.9668334614644302,0.9287899942655973,0.6055642659139827,0.14229969309233778,0.743188259276542,0.23840813005262904,0.767127098955113,0.40913050218309466,0.8601142786631291,0.5986795024231603,0.8481249735587105,0.46670354065760566,0.5271830117190942,0.8552755560181196,0.39978371316594463,0.9746270262847604,0.9060557662072706,0.9012373976091076,0.38100922543656945,0.8241074995336173,0.4206872531510927,0.6689542364264497,0.12408856686134317,0.8580431907157565,0.5371554891801638,0.8923497670978664,0.3932394554610908,0.9505959316986291,0.7572690649386935,0.7796427806429289,0.2845305948736011,0.6737039594569388,0.12081015475271854,0.8375119342141889,0.18732577569588893,0.8434445755726133,0.5252868873253839,0.9503698622553179,0.9001488589927266,0.6242566780139234,0.10257127282272696,0.6841274537631719,0.24170299743219414,0.8205721045876248,0.4880998533359655,0.8211762471181885,0.4231103081020859
16,3.090296684456073,0.6510692045588062,0.9014362282503636,0.6070081177925505,0.7706507740487711,0.05618052046092903,0.99029278982226,0.9528287786293169,0.7043367482578404,0.16829227667488272,0.9634107965961471,0.6487104847978097,0.8584452949763756,0.4673401421563338,0.7079951134976119,0.03286519192647515,0.8244546781933986,0.5961798052287475,0.9047451254309832,0.5771316154521661,0.7155380872414131,0.3028667930787589,0.715262528405693,0.281766224064041,0.8897486373888014,0.6760112629017494,0.8982197417068911,0.4458869690490782,0.7934200677000542,0.11694463482932371,0.9959524254792446,0.9831783818651756,0.8919024432144789,0.5773857936941682,0.8032407167355264,0.2637462531619233,0.6758757688042816,0.23202071860926032,0.7045479680652962,0.26161802470433493,0.7797333933738366,0.23888458373682547,0.9443794213235274,0.8664721489620482,0.9872781034498841,0.9611843046175156,0.4989640944909093,0.1306226801688075,0.7421652511695813,0.32246172227118536,0.6782680776261784,0.3466089385964225,0.8868862785569918,0.5722155268546198,0.8164288674540902,0.4494773805494019,0.5408406026962728,0.8489725053415921,0.41540771419405614,0.9843170147842701,0.9051541393109254,0.8204963838092352,0.37073209805478885,0.7517069367487207,0.3863540556183611,0.6259207300572734,0.09917619564949154,0.8317913327226242,0.49463862888028176,0.8642776810886182,0.3062883041375826,0.9523370911358692,0.7846815986942536,0.7360277471124219,0.25145582285295814,0.6345816516455736,0.12457281725140833,0.7011386606104595,0.14300658294234359,0.8450894269787472,0.5347317413803906,0.9758524009194608,0.9258119361595475,0.5508533443739075,0.09168850911852897,0.5928588495837763,0.1867738856818743,0.8277184624142893,0.47722422156645516,0.7839962637079274,0.40610614071832796
17,3.025666137627409,0.6667254141698978,0.8889316180926646,0.624311434667209,0.7640192533199232,0.0669951210292605,0.9693184130129525,0.9330584563902046,0.6974213829789845,0.13167585526982944,0.9697269826261671,0.6767067720243898,0.8413035138899598,0.4031251515759364,0.6659436504564011,0.05218146484768193,0.7239893307977572,0.4691458271605767,0.9489187522292237,0.6902920764813512,0.6672617024450662,0.32160306403823724,0.678849644181318,0.2671611858101018,0.860698009449037,0.6212215736814534,0.8339949586152857,0.3681967392352258,0.7803732615159278,0.14124534455504922,0.9971576222689018,0.9866279564672813,0.8288385887473502,0.49165231350867067,0.8004228246442779,0.28653876875117085,0.6957457991162292,0.24329435754506412,0.7007475721240701,0.2363553660889012,0.7551603833661701,0.21548322512517953,0.9381992250743096,0.8601617152399389,0.9686419224889088,0.9186561279703187,0.5009256897043626,0.1419942143445709,0.7501749239972443,0.26591079179044025,0.695354184941454,0.3371361472662079,0.8775963858137755,0.5604233723380744,0.7999890613806815,0.4350444008923971,0.5389902194025905,0.832094800108418,0.4016555654352789,0.9643940984394455,0.8963854408286037,0.7981567377843313,0.3253974533002876,0.6600844014558307,0.29433050061837207,0.5768293694852952,0.10328394115271197,0.806626045756518,0.4413617131154001,0.8157055849015636,0.2718632991368241,0.9515311959490459,0.7798065221716196,0.6859175166004844,0.2119251381655716,0.6274792079234117,0.10470587979534857,0.6325649477062463,0.08930409052770023,0.8399071713019416,0.5131754213529195,0.9571174405562267,0.8764064498813631,0.5345491382218542,0.09392915686232826,0.6008981963908574,0.18541909280625402,0.8256800078295782,0.447193379000858,0.7568459912756905,0.3772589402594651
18,2.963446706347846,0.6744800845964046,0.8170649899810947,0.59890132524728,0.7273714134366668,0.056588946306359855,0.9675932505690694,0.9334311577255843,0.6905695362775742,0.1639488915380055,0.9713141177165819,0.6775584625229548,0.8090968121973257,0.43172846204431475,0.6567724732411061,0.053880126165636505,0.8341325433274482,0.6173885871894553,0.9218396296516467,0.69534144465484,0.6978562476373282,0.3293847309087783,0.7145455089104173,0.27994405663231225,0.8010368101886615,0.5851921754343321,0.778315008805663,0.2971792636263734,0.757888608774008,0.17194961806821157,0.9973938036923614,0.9874875391945261,0.8454184664508897,0.4694793870803282,0.7208180772194612,0.20790796637986575,0.6985267941329809,0.21631878134096993,0.6630902892779718,0.2383056910169451,0.7609178829333839,0.20842880909347428,0.9369318525767301,0.8474455270389674,0.9757326947161864,0.9343048408557583,0.44089787176461936,0.12304045473925983,0.714072332042922,0.19649092442781718,0.7215024097974545,0.39443893147787407,0.8555615551338351,0.5365728258852889,0.7875484992482072,0.43279380486905816,0.5329103885804917,0.741602750300682,0.4005868835272487,0.9611178120283775,0.8858017996769345,0.7710009317514667,0.3103288223973327,0.7725861961751073,0.3930610986754451,0.6113697119365008,0.10759713747800774,0.7433530043682464,0.40489672237051355,0.7598237034322955,0.22289826442465874,0.9449028098352278,0.7453620161012591,0.6990150104628364,0.19283542601026732,0.5879441673049474,0.06309473564501503,0.6403571982930929,0.057355070884526085,0.8448879962949264,0.4733331015559507,0.9618048398337933,0.8849257719018405,0.474023311712209,0.07388686200729912,0.6155278447295709,0.21058625662871422,0.787937033157666,0.4523233800686628,0.744828395101059,0.3674295843346047
19,2.928948041597442,0.6277170720244389,0.7704273216817052,0.5093716925855454,0.5886983716423577,0.035502412104480185,0.9532923948264009,0.8994594411054677,0.6032380159299521,0.11888857950646481,0.9735252925186147,0.724850302294737,0.7550820842207122,0.22264514487232176,0.5999764183350684,0.03594745160133672,0.7258908223484544,0.3774590363151602,0.9063532130543336,0.5044410520057142,0.6274982624121502,0.22918875568700678,0.7249195670374357,0.29354755180901454,0.7107955896496689,0.4033433087690155,0.703532238140883,0.19837919062633064,0.658341584910245,0.0737715098710233,0.9959076423292659,0.9857418154873485,0.8053987992822533,0.41236182842771024,0.6539001175679376,0.24399838739282917,0.6613462232997693,0.17760859837573298,0.6424862581527528,0.1594100889646499,0.8043470801355239,0.20474142104213955,0.9127744907633932,0.8161767876431709,0.9644158878396211,0.9110667186650094,0.40923878236680855,0.0957513246043597,0.7118772705698104,0.2435483129206868,0.7128013875316891,0.28416658800969286,0.8518969106102865,0.4533872680701173,0.7472293087368111,0.36979825264450256,0.49616706317737247,0.7001222764003209,0.3164546576052198,0.9552964974338458,0.8696412532425021,0.733883074237072,0.15559527626117534,0.6649351898788577,0.23230046034691973,0.5400532668849276,0.078316024486001,0.6569338253322596,0.2466179262006762,0.6908826363232335,0.14082063318330248,0.9350801803651023,0.7803722244688088,0.6681531034255491,0.16741111926962177,0.5483330621467132,0.06442375007035803,0.7337610139464463,0.10138519655266115,0.8243362382755828,0.4628249368526262,0.9496423097545198,0.8796011952722884,0.429168775109639,0.052773717826348085,0.6304471096870825,0.15885788537517392,0.7990538388093065,0.3487693106180316,0.7162551498756538,0.31601034797698213
20,2.8857206462090983,0.6758019034191047,0.8411541999348853,0.5803677798948107,0.6750957940233537,0.03891074696344579,0.932200989725612,0.8856656005825861,0.6085054565443767,0.1299146730731625,0.9754435054958043,0.8320171209503138,0.8655817280518434,0.47564814838258146,0.7372522091460185,0.07867279400617154,0.7960105427467925,0.5662041444378023,0.9204922868862204,0.6714384788714791,0.7130554645710881,0.3623430823955641,0.7770345702268469,0.3853691632098891,0.7515077190611172,0.5840486545078127,0.7739014436152286,0.2811074935344925,0.7747871633137252,0.17336233427226472,0.9973966983587377,0.9894232022205285,0.8609624487525263,0.5879716508029567,0.7658221568256169,0.2914715844185666,0.7644378107562979,0.24893243842571364,0.7066011568165815,0.3280963873314573,0.781577062741639,0.2666573086663665,0.93259057218727,0.8284477065488565,0.9487888372374106,0.891374659155026,0.4622313864149861,0.15822699815701452,0.7386429890712243,0.34287470259841796,0.7345953958914287,0.43936973913468713,0.8507914445678157,0.5412115811756032,0.7956331166524786,0.45996646821990655,0.5263018768173408,0.7647629134620361,0.38651391315232597,0.9394194827023907,0.8659062383376175,0.8300043195274301,0.3652740139847117,0.7291985931354308,0.3251804202967859,0.6047915426899838,0.11003158984767315,0.6780276558942671,0.4165300813003174,0.7515022866138099,0.22152838243473313,0.9479609139607911,0.7662652916323127,0.7269670956154948,0.2439791155134255,0.5968037018957929,0.11314740005364007,0.646511827554182,0.09697735330374964,0.8320557102969034,0.4390135768616838,0.93262447491618,0.8648647240744504,0.46936259852178985,0.0768418685245869,0.642437654650624,0.2221594556854104,0.8028937314066195,0.4619329543504308,0.7434577814277328,0.37350914870961593
21,2.8495760829590724,0.6773293385031136,0.8081438688398495,0.5939984738655144,0.6893625658986334,0.09712708269685127,0.9462579341044092,0.8975233088127565,0.6782976898542876,0.13186573949864783,0.9782955619903084,0.8133334528480288,0.8583169552345764,0.4558270689289793,0.6305804439172018,0.07526071643724486,0.7761983646018974,0.5539035592570691,0.9279933271905838,0.6406261916113961,0.6781503048626092,0.3308240171445755,0.806397460431368,0.3782693586094349,0.7448179418713381,0.5225351181065969,0.7270870300952076,0.3212393705921,0.7805663045422484,0.18242977002020228,0.9980446800173061,0.9894795644641382,0.8451300786839884,0.5198981930913981,0.6941436110986284,0.2450030001479596,0.7567144416762599,0.25759440630501257,0.7449853041995942,0.27254700209669624,0.8371800473179618,0.32327662573560717,0.9358403787257488,0.8725306472588055,0.9637950009923707,0.9151770444932028,0.47497849317465357,0.16898365661903908,0.7588789418293533,0.3778257354464517,0.7119749815218266,0.41830026683080423,0.8599346005219275,0.524142191954749,0.7927717812766978,0.4569046754951254,0.5225129967398009,0.7049309614197643,0.38472981337350304,0.9493461489201291,0.8711776136839732,0.8066166792558652,0.31853323395954647,0.7029245133746876,0.32057680128709964,0.5652034786334895,0.09675377246475363,0.6829188769700132,0.33000959721685824,0.7133946715791546,0.23050263366074553,0.947833384616532,0.7566703545043856,0.7139335321546852,0.2620205101548535,0.612292591842971,0.07499330469102619,0.7252668017693421,0.10289117188624247,0.821402059909494,0.5042181763266764,0.9485663950905469,0.8750235274061777,0.47418460759959524,0.08577823023865203,0.6021580126462717,0.2092647048059626,0.8079390652619247,0.4412027711304625,0.7361819863152791,0.3665216385494324
22,2.8206348768231337,0.7029432499118787,0.8128801630285309,0.5780383745809304,0.6330668737936278,0.07622682496693553,0.9643176985597912,0.9154023048688071,0.6998794455846612,0.17348638143994613,0.9771683311665289,0.809432526630719,0.8855719471027407,0.4594876160515445,0.6856094631791068,0.06319661941227048,0.8209501559386251,0.5944071273568579,0.9229467364165972,0.5510273809393373,0.728066089921009,0.3702491239637965,0.8092575648845832,0.4046329134381752,0.7068168626557951,0.5207005469098711,0.6952367044948821,0.27283637873979405,0.7372255802259143,0.1999425494266619,0.9989076816217822,0.9939261127335444,0.8740930890374086,0.6239798484428543,0.6741600063399372,0.2382202577979735,0.7268259962909744,0.27246310661257445,0.7328918127368235,0.2967502053237102,0.8538031090538881,0.30703756044185226,0.940030005332482,0.8770445083325935,0.9691709955311457,0.9230829860080899,0.524255626555141,0.16688285210128923,0.8121783150819909,0.3608326935516689,0.7163603298382508,0.41966925178564307,0.8886487595434464,0.5801050982895145,0.7996276670736795,0.463425428851806,0.5482421358710019,0.722810754312372,0.37814451864287374,0.9630378723960498,0.868728787046117,0.8373365477251242,0.33523223267277663,0.7504949518331532,0.3540870352923383,0.6141504792595396,0.11055616340425821,0.6307875746135555,0.3223188201225031,0.6809951095640846,0.18077908765754833,0.9480203736896783,0.7558921245033685,0.7302328187045855,0.27367169138099756,0.586677196644694,0.07916525819361628,0.726890982199919,0.11825212990644397,0.8358128119012697,0.5253901486845445,0.9579044880209979,0.8969390607797991,0.4818363388229521,0.06185387452243281,0.5944651313457872,0.21652238403438268,0.8355917457718036,0.4632193942170062,0.7435653235503479,0.37129704444131295
23,2.7882865183418692,0.7031782399248032,0.826699452272692,0.5637042025916337,0.6680864518674787,0.12551491436334747,0.9706777231747455,0.9257579700736662,0.7151636595207925,0.16715947231271133,0.9653873655596266,0.6834158474377711,0.7437380118421062,0.3359679332210608,0.6096362213395363,0.08826093863331677,0.7700521966524297,0.5621173884381399,0.9296782115681845,0.6849246015922287,0.5893898777743951,0.298356641276093,0.8083359745644461,0.4239886069559228,0.742324035917872,0.5108203235269086,0.7160337358643434,0.2813344294730591,0.7820681252889741,0.18262240607129127,0.9992778812106581,0.9957449966606858,0.8555575100058652,0.5661384613307244,0.7554639388549423,0.26584188277171533,0.7883770964421988,0.3093364216106765,0.7121200979256803,0.23334417518392914,0.7545825879792593,0.22037945424458033,0.9356465431983093,0.8565308657877968,0.9601375738459454,0.9031183875532582,0.5266740241385383,0.15135865202407728,0.7610589517027021,0.32687144451854633,0.6111291858022319,0.3533037483473591,0.8184627110150317,0.4881135112082883,0.7813753517434224,0.4424626029695688,0.5428672129703057,0.7490125220606775,0.34902262151698105,0.9703086647151482,0.8861734331696118,0.6914551379761091,0.19424998408988808,0.6888564374342141,0.305210789458219,0.47551098002522774,0.06886413393175109,0.6951259111522825,0.3238405483194346,0.724070342211773,0.21205827471474983,0.9395797659131307,0.7200611101307921,0.7275536735265524,0.26323720491373376,0.5746543693455936,0.06998253453506326,0.5683725330537628,0.06467100231330644,0.814244376217362,0.47448855930614886,0.9453273891456008,0.8765136338177353,0.5181671113564572,0.06613988423868089,0.5057888043772842,0.1741988248534082,0.7725968872944177,0.39765802073606665,0.7100390566128496,0.34039816000284817
24,2.767620011511063,0.7031194924215721,0.8509405350516761,0.6303775058537505,0.7457289348083144,0.13958647269314647,0.9496122985244485,0.9082429074987128,0.7569356928596611,0.22101646595474006,0.9771338346531142,0.8659142151109513,0.8185574727797146,0.47053184277095644,0.6784798297914789,0.11086919918919383,0.7699130480198115,0.6060597696183453,0.949869070265129,0.6639184765576449,0.7362106289453244,0.424727136270492,0.7970417962364948,0.4228366686547257,0.772095753195904,0.6082649817897801,0.730033789116733,0.3056372609105855,0.7875527071584538,0.20414825966895575,0.9997718372911831,0.9990618714615668,0.8599797690029997,0.5873207283931421,0.7346669734212987,0.2983225553840994,0.7234736911967361,0.2728039894329518,0.7363836214783349,0.29615907079144915,0.8329330747607312,0.30815505397863385,0.9350207573512487,0.8703885093458856,0.9646309809639969,0.9216326333863623,0.5532464347381271,0.20735807500563877,0.7885943670842979,0.42450352818206677,0.6498930985745941,0.40493647232317165,0.8786336393118257,0.5746635178792795,0.8068205244839088,0.49028604492716266,0.5381971979910124,0.7593389505156257,0.37594460981267647,0.9498154441948929,0.8775388776786741,0.7643655948509424,0.29779884116167316,0.6855340905502211,0.3452047895655903,0.6052674273803678,0.12063703585362803,0.6937583784487723,0.3670807375651946,0.7023479350927367,0.21560796950516042,0.9488402016842604,0.7792349308112815,0.7061969649536175,0.25416927105152826,0.5765563135552302,0.07451076127917923,0.6810254449153094,0.11820630845343728,0.8279773430994282,0.5205434520254774,0.9495561577098117,0.8915086772263101,0.5247278191799307,0.0851929566375988,0.5320841010739549,0.1924753086772099,0.8327423172264167,0.46906741766708754,0.73375840527697,0.37404512156073166
25,2.735537872487013,0.696246034543532,0.8770334512174275,0.6445237621874572,0.7218030395578077,0.14035084750761398,0.9616288714165386,0.9205290971017097,0.6974568028682749,0.21375714689075173,0.9719189516605601,0.8333367173653665,0.7444985943668034,0.33593872181486295,0.6885216582128008,0.09874237116324311,0.7520043751853525,0.543001447595199,0.9179968196409464,0.538990332247014,0.6705357448641093,0.33450394032543135,0.7687114529761193,0.3816431601084299,0.8260009491988982,0.6128967055538621,0.7272163573273387,0.2805027940207041,0.7581572490693773,0.20838494395617022,0.999492553579365,0.9976505421714648,0.8407381167603619,0.5708690634885236,0.7655805683487343,0.3204737039462053,0.7544191892475212,0.3045177451161363,0.7138131476458925,0.269725067772441,0.835884264716793,0.4131780630758728,0.9336036512271456,0.867266783551093,0.9522106106390322,0.8907668574928215,0.5140250830461113,0.17975388590409072,0.7959289083841354,0.43365383120548207,0.6577722069491129,0.41205918832337185,0.8291176959778545,0.48691798115134516,0.7952334736186312,0.4705359500398717,0.5386377654418891,0.7936303289997656,0.4019723264813917,0.966022058231301,0.9015588009701662,0.6900939214524467,0.20346983118311263,0.6567527350545057,0.29530336401143575,0.5412154225032464,0.09337832082647346,0.7489839911039383,0.3700053943092563,0.7190389012718866,0.19386980186733896,0.941389215732063,0.761673095964549,0.7066609546720272,0.2664401511758615,0.5502158248637121,0.06656156922818574,0.6881569237519696,0.12564711934771317,0.8074251586213328,0.4877218438094069,0.9387607604738059,0.8535545646443913,0.46333245162081765,0.06425404762235896,0.5264064286550467,0.1944383419194372,0.7728721925956695,0.4023361282524072,0.7194348293502209,0.35513654385084287
26,2.7179771260472307,0.6951885794853718,0.859941380443134,0.6001567784089121,0.7147826766120511,0.15226580713656362,0.9361068786200957,0.8807355664858326,0.7715048013173254,0.2763636546932149,0.9657964484103533,0.6710482126515978,0.7500960852518125,0.34046192613942117,0.669025342527045,0.08429745692844696,0.7005021537268673,0.4872429113042081,0.9515481215075496,0.6432341926452141,0.7274890839307394,0.4128432102412116,0.7959877207670534,0.41243529669809215,0.7657097738271463,0.5959600374256763,0.7111386288080214,0.2802332601910482,0.7971516028983452,0.20699900188706793,0.9994609484931049,0.9976920832829551,0.8547214778372992,0.5670084485167107,0.7369660968276885,0.26661644616569347,0.7476223024178029,0.30694030985632426,0.7141471760091347,0.2615679933532505,0.7811582647744978,0.35180445623455125,0.9363222531066624,0.8549493548472884,0.9672684966772358,0.9231673882414706,0.5324493253408958,0.18170199812982984,0.7720607010678437,0.3676004197605775,0.6713159361164898,0.39145246604195244,0.7824990815467809,0.4667752042137452,0.7927989522639607,0.4608289954415714,0.5288571680324258,0.777596648168442,0.38590344956505523,0.9481110015197547,0.8517475384060594,0.6813331961336837,0.19591249666538255,0.6035503372769949,0.2611082039974505,0.5823250326493432,0.10266638697224512,0.6940157908183269,0.3759124754484735,0.6870646867440858,0.18912230969133142,0.9415014140818693,0.7481169976886439,0.7070626616796559,0.2262716322675988,0.5783296094780386,0.06562355281973024,0.6329538665119663,0.12203716543731152,0.7992590421338404,0.4935734484618138,0.9514499859320384,0.8948886588550723,0.5194900634833012,0.08034600485860274,0.5726734853259309,0.20469549901077738,0.7147495282081472,0.3742873276022092,0.7119666468840887,0.34826332173423485
27,2.710130085159085,0.7010927035600987,0.8422566103979645,0.5850161121825318,0.7077611157543509,0.1607095482554296,0.9459469843938582,0.8961564623721907,0.5940958807404966,0.17753654825620319,0.9664770712681716,0.8338300349297708,0.7897793333783392,0.4318062075809702,0.6314102031226085,0.05803795183336931,0.7733532209069316,0.5954756900748941,0.8204300915467839,0.38506325027406696,0.6853066707771066,0.43216338885192895,0.7804112845353427,0.3525914456616195,0.7873419364237955,0.6328090102426331,0.7619062952883046,0.3375917104953635,0.7887349944483255,0.24512632084564975,0.9996120223803874,0.9975724453212061,0.8468755625232057,0.5534077007381418,0.758922162036349,0.32502868183401384,0.7933865620231664,0.3248413424686984,0.7412921375151706,0.324912025546956,0.791118350548608,0.306967885503589,0.9362927027509516,0.867117998927357,0.9579528475594158,0.9010931956726724,0.5162355519083703,0.19925068470125726,0.7686162316451843,0.41939641761294605,0.7199156090801029,0.4820767324646722,0.7865250454588502,0.48517182678142795,0.7881521722466208,0.47349040843959844,0.544981936734514,0.7542141389810152,0.3329489485690583,0.9604193651887677,0.872806859831816,0.7408265449660544,0.2904225450269746,0.6849098049787221,0.33920256988203396,0.550699058200357,0.11336801968862606,0.7125977810976534,0.4158633061685558,0.7402204003948988,0.2433307773981283,0.9453463293723603,0.7660411734702014,0.717067439982864,0.258209226138641,0.5845149794228883,0.10488790866302469,0.6066509017973511,0.09520186232566301,0.8008394982684354,0.49989207447732326,0.9486335876183737,0.8721768232955562,0.5004036709908914,0.07881114189481499,0.598222690483865,0.22364207456125562,0.732522595953423,0.4026505261369794,0.7236305492311201,0.36934098984554076
28,2.707515189544307,0.70776054517683,0.8704548156935532,0.6373175549138926,0.6290355407296648,0.13206790562470697,0.942517871276084,0.8835742448906385,0.7372566927639539,0.19969282359822105,0.9710710908876019,0.5297604323435564,0.8520211605105501,0.39486196033236826,0.7057150024376277,0.1290212694232129,0.7194057494616116,0.5274359373013702,0.9380684520271074,0.6181078470970224,0.6783798372580312,0.3991088755564186,0.7944672437507475,0.3919550575009274,0.6632089607394234,0.49846240053504237,0.6426351945043532,0.23370134407396898,0.746782694975144,0.2035223518884574,0.999731485750516,0.9988516416661075,0.8258877129548405,0.5364558449235415,0.7246911745181642,0.29671154515175185,0.7390299433572121,0.269757239824509,0.693142147995627,0.2636513534650947,0.8611175571071744,0.2814088130542085,0.9350726555490394,0.859751600134212,0.9507467805558483,0.8911284801983073,0.5007459592336652,0.1866135442588004,0.7544124030689492,0.19878807218783867,0.6562939446156459,0.39818247147844954,0.8663002417640687,0.5513981564840125,0.7845458582110078,0.44274187568871687,0.5402238082650453,0.769217625834215,0.3638051619027607,0.9540265580787974,0.8518605009083144,0.7877043860164911,0.24275222052588186,0.6349713544896958,0.2719592205464138,0.5655231604440434,0.11008536432432224,0.5880462259597607,0.30522431483304,0.6242992156303964,0.1658435424480191,0.9423296066670251,0.7456611495928372,0.697172233115289,0.23454376890102283,0.5405953141597779,0.06907841606554621,0.7437072763803583,0.1008231815581283,0.8182512404974327,0.46795670040443954,0.9411874269584612,0.8714375159825959,0.44816412120096916,0.06097273707716197,0.545346489561133,0.19643069741012073,0.8027388955214513,0.43034143931215285,0.712705070657206,0.3430484957370473
29,2.6942907253144814,0.7227411585007637,0.8903853392658356,0.6347502582135826,0.679355389208179,0.18260042984428795,0.9448254881809324,0.8990674320075341,0.6884184937630728,0.22462283542564224,0.96849131308356,0.8605745772441132,0.8225062283902742,0.5247488592405454,0.6250710872895682,0.12852408638568047,0.7716253717443785,0.6434440109871319,0.92524655213411,0.5699670669446589,0.6639604834185492,0.42493993514675826,0.8463837060957621,0.5356764548819414,0.7218119367275546,0.5919459869698882,0.7012240323280042,0.3182394491734055,0.7904750815876775,0.27109602858485093,0.9997778194206643,0.9989961951269369,0.8369014387646897,0.5727531209763373,0.7768504723522025,0.25508074129537345,0.7985891479573368,0.36617566950687797,0.7766715314900082,0.39595404837280224,0.7918878341728013,0.2836509982255997,0.9423060381972278,0.8812365352393448,0.9662599796765525,0.923556406102177,0.5395495263901262,0.2429037483305448,0.8048656471048857,0.4754036309575644,0.7088334932364005,0.49542380273016257,0.7962128662837817,0.541842239239393,0.799172549933236,0.5093528671981975,0.5512379945369636,0.8192919545245329,0.39085702396282596,0.9570806579178435,0.8773871425089114,0.7587732768251699,0.3686986441405434,0.6824845328569554,0.3561219170116324,0.5252060980118114,0.09427442273633205,0.6518250412606162,0.40893121315190406,0.6783540748543725,0.22207860244518915,0.9479875040375706,0.769987958323108,0.6862811619515249,0.2655592080555306,0.5935454938705209,0.09895502589777733,0.6299157906238049,0.09710535935632648,0.813251438089988,0.4944985863097716,0.950364250238321,0.8911095607461624,0.4885107108902996,0.07147397548443582,0.5697515807839534,0.21784634429334096,0.7443368167983301,0.4447719769973459,0.718560023970976,0.3793535600888211
