epoch,train_loss,train_accuracy,train_1st degree av block_rocauc,train_1st degree av block_prauc,train_abnormal QRS_rocauc,train_abnormal QRS_prauc,train_anterior myocardial infarction_rocauc,train_anterior myocardial infarction_prauc,train_atrial fibrillation_rocauc,train_atrial fibrillation_prauc,train_complete right bundle branch block_rocauc,train_complete right bundle branch block_prauc,train_incomplete right bundle branch block_rocauc,train_incomplete right bundle branch block_prauc,train_left anterior fascicular block_rocauc,train_left anterior fascicular block_prauc,train_left atrial enlargement_rocauc,train_left atrial enlargement_prauc,train_left axis deviation_rocauc,train_left axis deviation_prauc,train_left bundle branch block_rocauc,train_left bundle branch block_prauc,train_left ventricular hypertrophy_rocauc,train_left ventricular hypertrophy_prauc,train_myocardial infarction_rocauc,train_myocardial infarction_prauc,train_myocardial ischemia_rocauc,train_myocardial ischemia_prauc,train_nonspecific intraventricular conduction disorder_rocauc,train_nonspecific intraventricular conduction disorder_prauc,train_nonspecific st t abnormality_rocauc,train_nonspecific st t abnormality_prauc,train_premature atrial contraction_rocauc,train_premature atrial contraction_prauc,train_qwave abnormal_rocauc,train_qwave abnormal_prauc,train_right axis deviation_rocauc,train_right axis deviation_prauc,train_s t changes_rocauc,train_s t changes_prauc,train_sinus arrhythmia_rocauc,train_sinus arrhythmia_prauc,train_sinus bradycardia_rocauc,train_sinus bradycardia_prauc,train_sinus rhythm_rocauc,train_sinus rhythm_prauc,train_sinus tachycardia_rocauc,train_sinus tachycardia_prauc,train_st depression_rocauc,train_st depression_prauc,train_t wave abnormal_rocauc,train_t wave abnormal_prauc,train_ventricular ectopics_rocauc,train_ventricular ectopics_prauc,train_mean_rocaucs,train_mean_praucs,valid_accuracy,valid_abnormal QRS_rocauc,valid_abnormal QRS_prauc,valid_atrial fibrillation_rocauc,valid_atrial fibrillation_prauc,valid_incomplete right bundle branch block_rocauc,valid_incomplete right bundle branch block_prauc,valid_left anterior fascicular block_rocauc,valid_left anterior fascicular block_prauc,valid_left axis deviation_rocauc,valid_left axis deviation_prauc,valid_left ventricular hypertrophy_rocauc,valid_left ventricular hypertrophy_prauc,valid_myocardial infarction_rocauc,valid_myocardial infarction_prauc,valid_myocardial ischemia_rocauc,valid_myocardial ischemia_prauc,valid_sinus rhythm_rocauc,valid_sinus rhythm_prauc,valid_st depression_rocauc,valid_st depression_prauc,valid_t wave abnormal_rocauc,valid_t wave abnormal_prauc,valid_ventricular ectopics_rocauc,valid_ventricular ectopics_prauc,valid_mean_rocaucs,valid_mean_praucs
0,5.262934529829567,0.45591939546599497,0.3733373073107289,0.028842394051894506,0.3795976094077338,0.1337361993204581,0.5886824041639398,0.022619316924745312,0.41459967054893043,0.06437894846657985,0.7352927017138455,0.14109160660646913,0.636470750481267,0.0694937815921759,0.9341189316589725,0.49597383440178855,0.6408756968873424,0.027364466782862785,0.5086965300240774,0.3097011493514281,0.9263961781361337,0.20863680965240283,0.5598675304954501,0.24078694732953104,0.5693682118966304,0.3003444627195148,0.7713979461997056,0.293877008587466,0.38422751027104696,0.030431831424532284,0.40037219203528124,0.013773040826741897,0.5068209345317779,0.020290556535621028,0.4776686913898028,0.02779604311554715,0.5238288964196434,0.018314675279801393,0.6808626047124924,0.06256920200094843,0.557022980553438,0.040868812313673494,0.5870926704452134,0.053028794477234416,0.7813105202574997,0.9460497763530895,0.3559493368180254,0.02940116581719501,0.5603692076542754,0.07697327787788212,0.6515558150082932,0.16007974258145757,0.8376368604628374,0.20573087778552784,0.5901315265186302,0.15469825854525268,0.48695054945054944,0.37124647668702704,0.12071670972043745,0.39584739520696444,0.057961676322017174,0.6202870978900035,0.07671328312441897,0.9217190775681341,0.4319941585063692,0.5263302348766971,0.3122451486260196,0.5482848943148688,0.1755136710090956,0.5702538748733564,0.3014539131329943,0.7902668851011421,0.34206210837195294,0.7901269635160237,0.9514151510970138,0.5580940036682588,0.06948489863540272,0.6593114548275318,0.1649357983768165,0.819808446376936,0.18000157007449455,0.6309647337422454,0.2653748405830861
1,4.7957926619809035,0.28974887413174566,0.3244661392114851,0.02624152073703568,0.32247183226760945,0.11036024554082359,0.5688415214702256,0.02187502936831936,0.5735319260573309,0.08209532030770374,0.8988595945627691,0.6223891875897599,0.8163273767110077,0.3297539118931409,0.8956206422743787,0.3258466407127809,0.36954475318441005,0.013699759010819473,0.5898883936974584,0.4018277818871805,0.8331138672802703,0.0766636044323259,0.631445120667988,0.17934979852859229,0.7433641773781319,0.5253210563940522,0.7911538203161841,0.21686766568572685,0.3685513195684037,0.026691324529944757,0.3775100134785032,0.013308341021194423,0.497517614810315,0.021980423540414955,0.43286477000838286,0.022431117158398017,0.48815267229086745,0.015846939602440453,0.6970045936659071,0.07959730828404843,0.5612627915898833,0.042197044040911624,0.6299381434132635,0.11296762970859912,0.8263398046623616,0.9584969781024149,0.41504720236321363,0.03446266055197737,0.45836445564952355,0.039480893852519995,0.7044381871022317,0.24304264242985807,0.8686310163761466,0.289767554692787,0.6032404519253174,0.18586778383091423,0.35027472527472525,0.3325150132708885,0.10734109625846773,0.5700091965693882,0.07817267780846951,0.8310232567603312,0.41085017044834815,0.8948404379221988,0.29783878685554727,0.5885552590681171,0.391130446811591,0.6205994897959183,0.16349537650650608,0.7316913983129117,0.5081917597891413,0.7913300103407809,0.21435835303847608,0.832200159906701,0.9618542218110923,0.471947809032633,0.04658582578966544,0.708959273014881,0.2555856339808685,0.8525617258415582,0.23774489267975915,0.6855194191530257,0.3060957701481611
2,4.485726229226023,0.3731776200290054,0.3565636489449507,0.026614487112327306,0.29166930545727965,0.10746842839256046,0.5696850340431563,0.02140027337265686,0.7810142666947456,0.22025741739564128,0.8728113126018608,0.531941369364776,0.7880355940744124,0.32300217648878693,0.9055352404181151,0.4146693508826146,0.5195658661722312,0.02189617259105508,0.5896845093244965,0.36606402377404845,0.8989451208685628,0.202081974598912,0.6550997465721489,0.2860884206398421,0.7458075046570369,0.4769869861959553,0.7980749573881224,0.2795194222253664,0.36707532893675343,0.02892030841303628,0.4710695989566085,0.01872087410915611,0.6729843432241259,0.051469667530154486,0.42558784440502356,0.022348872574318144,0.5468228883890484,0.02263175676835216,0.6458554921658399,0.06628160512191189,0.5918771046467184,0.04933791639830548,0.6573014606090817,0.09385562451830062,0.8238269286597386,0.9592835505181375,0.6492910541294632,0.15026361163500235,0.37112068560032363,0.03376255275991185,0.7002963330684211,0.3155202433660348,0.8985266757326478,0.3346505825182018,0.6382356863746506,0.20865529497174487,0.3853021978021978,0.29694183629623994,0.10069630129839068,0.790167577307361,0.21327387753615662,0.8122744012859382,0.3962863347812596,0.9094914201413153,0.3782311991026141,0.5952401548250887,0.36807237570233625,0.6393218727223032,0.23900562311977372,0.7289903219125559,0.45840857925774225,0.8144817409692447,0.27807389217690215,0.8299259229201608,0.9627741030022197,0.40447886211342543,0.04038065650774594,0.704891828884163,0.3067179092907554,0.8894087822137242,0.31408363201765793,0.7013012267992934,0.33800037364946284
3,4.346115383498769,0.5081291504465308,0.347707404103479,0.029382139530451795,0.36598785678512336,0.1259855290065179,0.5785257152053734,0.023012100704378247,0.7173474459511071,0.2018831045571165,0.9165294543512407,0.729883465900315,0.8409741031112092,0.45297409824508666,0.9216797942761839,0.5549066205523716,0.5227715479471191,0.02255355426885477,0.6644689852179405,0.45255927850681443,0.9139494786441954,0.17203266988536875,0.7573040181548504,0.38540131808194633,0.7260078268190886,0.5513280702525061,0.7622782469987275,0.22617207254067023,0.4368705533882141,0.03522585306098999,0.5626948011682278,0.024707770160132668,0.6117795176973065,0.03942311910810534,0.5175066785311242,0.03112281680685971,0.6352655212428927,0.03474551484595409,0.6897786840134612,0.08395992082078978,0.5702436852590917,0.042938800475585966,0.7205709889438605,0.1374351628230631,0.8632702509018784,0.9680826660731123,0.6606377993999709,0.2196940538410227,0.452689129385962,0.04651950490855738,0.7693194166490508,0.35936228362217637,0.9136031395466081,0.5509625018230795,0.670760078603588,0.2500866919385318,0.592948717948718,0.3629352615012654,0.1148022946814985,0.6985389522569048,0.19917842766788815,0.8394144098317293,0.4287409573860629,0.9264236353754173,0.5330356659721855,0.6710776178048852,0.46157558493864925,0.7438883700801749,0.30858902262547294,0.7060391489552256,0.5428594937020351,0.7769272775860668,0.24575962701709364,0.867919168966077,0.9712363012270746,0.46213703306880716,0.05481793876745267,0.7529799254984058,0.31402315609308823,0.900004800586693,0.4740851700865873,0.7256904667926377,0.38739197001375736
4,4.193110611318459,0.46767422334172964,0.3308226133208834,0.028629396808627527,0.33025513521684347,0.11163813668777153,0.5029677827333796,0.01938624648649199,0.7201167713081312,0.23230496281876,0.8645226319804667,0.5028891369936813,0.7498182946416972,0.19511324814618336,0.8145521452363634,0.18950975298334513,0.36766601475686733,0.013981787919253402,0.40101837613891617,0.19956374486583336,0.896924974155281,0.2525383793234914,0.5751007976222272,0.2196574552153429,0.6665887919779385,0.4541266721321792,0.701944471520513,0.17413884611678104,0.39097667933103597,0.027947625729990322,0.41829662519539745,0.014346907665285603,0.569616467738367,0.03366546409623099,0.38622652011770253,0.01943884864695882,0.4850735193217548,0.015416386301039284,0.669399658958651,0.09790953049224965,0.5636349788992595,0.046165145427446666,0.6570734140991196,0.08389627073947027,0.8561099144712667,0.9655002263115198,0.6262277803842833,0.17116934614540957,0.3585183313690101,0.03263867747760885,0.742299064605945,0.36596183354280276,0.8994009628138133,0.505674451016325,0.5978904891505813,0.19127724923423386,0.45535714285714285,0.3359563982952408,0.1052988826122645,0.7055000478554515,0.21920863955080505,0.7917736586159888,0.2419853597679477,0.8226655796257474,0.18560647114336812,0.4065715626191244,0.1940872479295656,0.5437243759110787,0.16672910885465828,0.64882200491461,0.4259545373634013,0.7207373325432512,0.18730299879825002,0.8647379423734722,0.9694233660145406,0.3729899486080593,0.035683173776681565,0.7165991432593202,0.30266594197237273,0.8754411177400063,0.4269975551535993,0.6504599260301126,0.28841194024478783
5,4.048935863609742,0.6110983894359209,0.370695056983501,0.033801777314609635,0.33971803382082544,0.11971947742106183,0.5635559484905434,0.02384473543582645,0.7929668621481065,0.33305807238155555,0.9212758598247036,0.7196803469541889,0.8244407608545884,0.45310103666214485,0.9057502066319624,0.5150240746311315,0.37373163328803827,0.016559726817347423,0.5534518124682059,0.3701253579208563,0.9400539967607351,0.5547360817782244,0.6559859401654948,0.3419734908441505,0.6847026545798298,0.5169641625899957,0.7864305209055057,0.2934585032194871,0.38715826159027567,0.033473477310142746,0.6024430979569642,0.02707337848614496,0.6481715845642139,0.04492359254100056,0.45945978846385194,0.02453128296568898,0.6225538306415527,0.03169008670307197,0.7621579937706321,0.13544495268519532,0.5780540554776157,0.04854938335036124,0.7498014883945321,0.10607085993617107,0.8431210171686802,0.963929675135537,0.7422856881002339,0.33246536486231476,0.48902509988482834,0.05226707644006864,0.8304052142837223,0.4441831791615775,0.9392634948956039,0.6472205352190191,0.6679484577736441,0.27630268033718747,0.6151556776556777,0.3423264247958997,0.11074947994213376,0.7779432143050348,0.3231825070701624,0.8381732353958533,0.45854905873720425,0.9141827781660067,0.4807212939742288,0.5570697592587163,0.36113333628788447,0.634527036260933,0.254022191673301,0.6724644698322427,0.5042183400275084,0.7904434916983282,0.2846199085108474,0.8444430167060422,0.9654965851845332,0.4860351934915648,0.05644955685051975,0.8143477791943099,0.36512719522145515,0.9229087061193181,0.5069273006109192,0.7162387587686875,0.3892663961742248
6,3.926431294880098,0.6288832913518052,0.36726154051372695,0.03880559334208214,0.3586215913449405,0.1297936415440039,0.6462534725016327,0.031961885490776915,0.6960407423535585,0.21368669405848867,0.8830810169948692,0.5848932059371212,0.833437082951141,0.46367344449988884,0.921775699752797,0.6167522804810673,0.4174939359689115,0.01896267812227111,0.6154567457203266,0.46372712996290366,0.9419213734699342,0.6515935667489369,0.639547444952452,0.3481144529606657,0.7262443104022499,0.5235936885625007,0.7890820729789324,0.2753051116967292,0.40096893464743855,0.03266925493100061,0.6435102846839775,0.03193385655155785,0.6292358978397249,0.05584901101833104,0.5353253241880263,0.03247512594648625,0.4916567353185091,0.021526199350027225,0.7840501684321889,0.1396300591203596,0.5900649108459016,0.050224687695470505,0.8041510639357617,0.1998371301960983,0.8726107072310656,0.9703279533763252,0.7133168081564129,0.3505696154225075,0.449566393005307,0.04983829142645654,0.8652202451526557,0.45846079778757787,0.8505317979569192,0.5504238053198243,0.6717856269730522,0.28094727544420994,0.6712454212454212,0.35195547724829,0.11475349027225328,0.6710690907880337,0.20794681352741146,0.8503082588967791,0.43920291187485455,0.9294409503843465,0.5756893718228739,0.6130111720376507,0.43606845397782634,0.6035241663629738,0.2560025822735025,0.7049126509227489,0.4918823126508939,0.7719038655930844,0.27574389375959657,0.8755782340529136,0.9727130641925262,0.46452616812246894,0.054432819622796356,0.8431263014963924,0.38001002420448354,0.7954970496819866,0.41389650609923806,0.7062377821323057,0.38486185368985476
7,3.855904249787904,0.5715594229448133,0.461338424470808,0.04745191631310941,0.37134384158395195,0.12337831016491577,0.6487978966663271,0.033295058033391126,0.8769806327031049,0.49267748102072995,0.9377701052945168,0.6857196952007873,0.8979180035194495,0.49097217820746897,0.9258199877195008,0.5133324447076854,0.5187051547439139,0.027661172873195125,0.6763736414009638,0.41206574003429186,0.9304507796677995,0.3867387897057976,0.7162938978384124,0.40904063894556186,0.7522713892634465,0.567293540033602,0.8154221737194702,0.3271789693402816,0.41452773564813317,0.030407748020153953,0.6564456955330141,0.032859995028576346,0.6844267827612973,0.05114220603898862,0.48387318524402656,0.025823125801736405,0.6299952568179512,0.044402751691141794,0.7750888943022436,0.143331547962599,0.5764647380255344,0.04982282891703352,0.771944845675493,0.13250568692642037,0.8802487905591544,0.9723832444160414,0.8078621948340209,0.45208539176154716,0.491284183591876,0.04828808750403182,0.8455949400036001,0.4646867725909142,0.9062111928109398,0.5374693996534678,0.709748244784575,0.28853902772667195,0.6027930402930403,0.3744643844713129,0.11571786064981271,0.8694544894655587,0.4729566773077537,0.9004160986428469,0.5414748963858509,0.9176527680720553,0.47379410810105593,0.6665375480163035,0.3963975475831077,0.6835356687317784,0.306375340627183,0.723226570240301,0.5220004198004821,0.8125408112284616,0.34405329934924783,0.88010529194996,0.9732981387786128,0.5138365536528229,0.05599893793167142,0.8234472612229434,0.3933404191621609,0.8631383375874703,0.4103201948885289,0.7523629819401512,0.4171439867137891
8,3.713678009209219,0.6955194259980154,0.49955280248776546,0.10549362874176965,0.3760836090489451,0.13659204989839568,0.6463930490860939,0.03560051878599733,0.8671789279812109,0.5204461254279824,0.9336346972036198,0.6530075610952666,0.9096338778506949,0.5417641995516862,0.9293056755514443,0.6285757692940038,0.5180271579695973,0.026431847259788283,0.6936094403628958,0.46901611460008275,0.9612324708813161,0.5361340606712939,0.6479844614964121,0.3313009818242817,0.7378469305149608,0.5726231398750629,0.7732594332290978,0.2853489509200286,0.4225341419960563,0.034274191049887215,0.6236693555531024,0.030401694840537938,0.6741575702123778,0.06461971227035693,0.5247173678090026,0.031080375060654426,0.741847842299638,0.08833142742604967,0.8066655438967933,0.20421944167492864,0.6013399628592803,0.06220118582282279,0.8293594651033269,0.14510061943066024,0.8624482777521758,0.9675205564392313,0.8571685440586748,0.5082454008388733,0.4222889315649497,0.04209280867324552,0.8658861072234112,0.49073334301274874,0.9091311109479162,0.546224476361952,0.71672910595926,0.30989923772490724,0.6973443223443223,0.37988828193905055,0.12193211575106178,0.844963317756037,0.47974707530993194,0.8764766923718641,0.49926561790966706,0.9290954266635608,0.6067308140229064,0.6749740492038824,0.4443580772853504,0.6207538037536442,0.22737101071424337,0.7069929639352704,0.5169996669762211,0.7538522314011179,0.27756852892422645,0.8591938087251348,0.9683508186015036,0.4524703996949171,0.051110132231645546,0.8313775051645035,0.37690259402107573,0.8533870181921809,0.4296236257505801,0.7319521249000971,0.4166633397915344
9,3.6350947979997748,0.6039996946797954,0.6210811441720093,0.1662379160726563,0.4240202051002719,0.17551529553543083,0.6465532773080519,0.04522661699285236,0.9143344231750802,0.5663136467581209,0.9589351888195782,0.7871645521994776,0.9161912637736844,0.5314911229501089,0.9615210477213499,0.7400504848938663,0.5860552684048106,0.03412983412681456,0.7654240868962824,0.5960226156733208,0.9800475164284085,0.8301347323147377,0.7600860313284914,0.47249804472107443,0.7363328392128775,0.6130332117418935,0.7654188477537547,0.23921339733918814,0.47755451425038764,0.038119820490549794,0.6482016964651978,0.03488716694483253,0.7617572687263213,0.10419233811753799,0.5287415527799684,0.03384430565858835,0.5950262217422692,0.02717459660703076,0.8048083789375055,0.1443035884683474,0.630679654530093,0.0764116676340888,0.8413668959618067,0.17988284502297663,0.8629205027376097,0.9679820068115589,0.8194640100947629,0.5529246591544061,0.5233626346748519,0.06485671309282759,0.8582685630405564,0.4700641644691182,0.955178589518142,0.7330655016645832,0.7439742932136201,0.3547977248252304,0.6616300366300366,0.4235825025750253,0.1469252066223637,0.9062898708735075,0.5350112867644254,0.9018851608439986,0.43810627458261814,0.9485022129047286,0.6673065097683285,0.7458830601413365,0.5403002831480811,0.712345686042274,0.33453909152635275,0.7052076394758495,0.5505379651902162,0.7602176211556112,0.23940980901280756,0.8596927657246599,0.9682647322326859,0.5361854649790256,0.06591852884936686,0.8171989723536586,0.36489331284544035,0.9063875380855058,0.5394357588906439,0.7686148745962651,0.4492207299527775
10,3.549909472511011,0.5459888558125334,0.5980067863306293,0.11034272090875649,0.36416183539940866,0.13101043849335406,0.5785193060764952,0.0410476503013313,0.8864448553163693,0.5030424552553077,0.9570289776307023,0.7749928307510324,0.9298119072739227,0.5910324777637305,0.8557233481718595,0.3747568344561361,0.4190201033742682,0.01616937190928177,0.575552408725022,0.33955105505505223,0.9490780172526456,0.686165747083128,0.6937547228263361,0.3226772147074873,0.6641825466705282,0.4734320915977228,0.7661763117477061,0.26495302255112696,0.40340783062241103,0.03170543281348407,0.5527424801808763,0.023839353304294843,0.6901271441195844,0.06910151766438744,0.45460890254404773,0.02296621998516575,0.6855285217380928,0.07741993804857875,0.7732742509103292,0.14805575652910946,0.622971691767615,0.10879530934073679,0.8143422525314604,0.18514174157016292,0.8300374962189114,0.9617024151912552,0.809725829349224,0.49693785966245896,0.4656924340182259,0.04317585925921763,0.7966907783867847,0.4221987732088905,0.9369799585773289,0.5589531468177705,0.6951381037600302,0.2991987397780369,0.5563186813186813,0.3693215296780653,0.12040265167308722,0.8755383738301422,0.46526161533334,0.9031253179237796,0.532955673649426,0.8570121903874525,0.3429171932951036,0.561096970940973,0.31210828750741426,0.6483361424927114,0.2163703981683801,0.6439838008183554,0.4314960411788721,0.750680283964818,0.2504554054422965,0.82438291643372,0.9614370024340191,0.4821637732217117,0.05078037438327566,0.758282425754211,0.31137228125200944,0.8921798442771388,0.4275870873304972,0.7138419641435899,0.36859533430397673
11,3.4832759363106596,0.7608579497748263,0.6150588176444597,0.15056952626015185,0.3807589596171647,0.15514100859949143,0.6795428439583635,0.04335369910971991,0.8846250664791567,0.5309344302913862,0.8874665272401672,0.5455472086571969,0.8773834526823008,0.5062745563063352,0.7592231426483937,0.41004422009705765,0.44623903077098914,0.024827845647062523,0.586295488674145,0.4086716055556209,0.9691021540119927,0.697553401111172,0.7413875384815111,0.41320756293352223,0.7672436978233723,0.6498290270800755,0.8133539499300559,0.29535044079066014,0.42540595899054157,0.03463118448019291,0.6446077128656335,0.03702935036075653,0.6971261954134621,0.07145135596122004,0.5162246774350621,0.03306604348215174,0.6702108776974983,0.10479663757873159,0.8269757324653253,0.16903548039531188,0.6543418270130761,0.1386092739946629,0.8393432919131169,0.16299086124346945,0.8528757184068471,0.9667431892847163,0.9041871536981051,0.632477070118658,0.48925154581263175,0.05521700472348173,0.8795189857310787,0.512530141498042,0.8856234735396219,0.47298677953357177,0.7189759161901565,0.31626418865747763,0.7152014652014652,0.38204616336659103,0.13811613545543344,0.8645907110487834,0.4670025224394092,0.8571041976112479,0.452841844705772,0.7608641975308643,0.3401141916220924,0.5732231768466118,0.3697924215399867,0.6918839969023325,0.25821349525372994,0.7154815814073249,0.5268838825769075,0.8004606876038435,0.2859362247943287,0.8484342969816108,0.9669393040573758,0.4948676158134636,0.06969518094927196,0.8310578175512924,0.36315799677019195,0.8381671155725925,0.3698358745208756,0.7215151298530466,0.3840440895571146
12,3.3801042391010734,0.5690405312571559,0.5662402561131166,0.15755446511197407,0.44583937648961364,0.21645446810104224,0.7497824456808524,0.05912952981034247,0.8764279187473005,0.5889982944485015,0.954904409312724,0.8142400512882169,0.9422952007149126,0.7044670414207214,0.9168970834060698,0.5946690585946663,0.5012086788666928,0.03377141112615079,0.8035804045768687,0.6232934632144509,0.9537909042812555,0.714545022668099,0.6966369217094873,0.38753947589411397,0.8678506799992538,0.7837471967667486,0.8723609943913021,0.4179711132122438,0.480650349614719,0.05424458377634142,0.6992389211200921,0.04062719298891878,0.7305096514286215,0.09355111013447513,0.6207432121491026,0.054318399322976586,0.7679047664504889,0.08182527781527935,0.7913468359776903,0.15127924262904324,0.6376564405125675,0.1552975077243373,0.8262573739497614,0.17998791051365934,0.877341544470678,0.9720812378958399,0.8981339073444984,0.6088851731239261,0.5224663926021392,0.057954819509766234,0.876969351511551,0.5154472956312864,0.9010548471396704,0.4428636421537909,0.7606957257138857,0.3655670763414197,0.6410256410256411,0.443370209476504,0.16924808586100562,0.8555963829601301,0.5368127841911365,0.8941268032636784,0.5601275259533068,0.892606568832984,0.48339594684400394,0.7639744304020174,0.5494531003191553,0.6333881878644314,0.2328346770463238,0.8168070707692653,0.6848683052882769,0.8374202656070271,0.3600625641627696,0.8672778138469586,0.9705514039579016,0.5142292570868214,0.06063396407079306,0.8261612873786999,0.3532638405630202,0.8329395830843668,0.34278152492693387,0.764824821714407,0.4420028102653855
13,3.2904091262697275,0.5967483398213876,0.47108672997240447,0.11116537615016221,0.3638964360472263,0.12150742174163626,0.6140919296961289,0.04825316397434981,0.7945158265010012,0.40348867739379285,0.8856071158508069,0.5503647941194213,0.8400482300397217,0.4238766666536392,0.8303199744996534,0.4805060938435906,0.40044289651143594,0.01551691852137765,0.7499581066119156,0.5223558762170224,0.9255897417871477,0.535858333684819,0.6512976988962296,0.2579755948859722,0.6546083945020205,0.4401857777699157,0.6269142414558904,0.15539641150556815,0.3985651954598491,0.03500331560272314,0.5109712154230056,0.022565910903126825,0.6534200918207533,0.0886116755136904,0.42715149906529204,0.022510407561559875,0.7844689873455483,0.12492899619462333,0.7137856592212989,0.0951144649719863,0.6269589096088267,0.14631225746982174,0.8232452253276521,0.1659230043479988,0.8646554590799926,0.9696278990422962,0.8230189816986903,0.4687606114763617,0.41067870615381924,0.037510700276090346,0.7743349618814941,0.3772638530784922,0.8946223138842929,0.35585839252936907,0.6736251741670038,0.2683247152088234,0.5744047619047619,0.377322097108776,0.11571819433244485,0.7585496885234304,0.3335490720665957,0.8107565059922275,0.3015700766960124,0.8112330149856356,0.4101366969868514,0.7155285458757293,0.4704650229370254,0.5878160304300292,0.15557399002619318,0.6172197468807898,0.35502446694232526,0.608563677135255,0.1478157349799447,0.8592298779058233,0.9691340093268053,0.4140490221003505,0.04121904674546241,0.7218275290857654,0.27546109131428553,0.8360916278789474,0.28999683375557483,0.6765156136585633,0.32213868634246007
14,3.171684841428692,0.6846042286848332,0.6553861288735858,0.17760577315105508,0.42359467568068854,0.19600939259659952,0.6389554330541565,0.04794166186163932,0.8850060054325516,0.539627103424447,0.9397461807002323,0.7729056245999952,0.9069314258494511,0.614024967731673,0.9301689890626701,0.7151001570579868,0.525110962244263,0.030395945992976906,0.7138490145561827,0.5213503184674247,0.9694403660711791,0.49539914467559615,0.7823363775391079,0.4949967637957095,0.6529227321813099,0.5581374792272816,0.6145824167718243,0.17930807474921412,0.4806742120718557,0.05637138477523454,0.6880428368365176,0.058661828020917094,0.6862645102664002,0.07062452330519595,0.5318144409033536,0.03179836549972255,0.7627126228305162,0.2096717877563269,0.8156539683398947,0.17041370927559626,0.643880340402028,0.23795347763360916,0.8024326882032036,0.16843959440869954,0.8618288897505598,0.969269366984158,0.8446315733251112,0.615037101051854,0.5519493836235918,0.07939108831492662,0.8664410224637755,0.572953799627744,0.9359713111047565,0.6242824593754017,0.735012634928414,0.35414118820619167,0.7202380952380952,0.41296332465054697,0.14646497128850292,0.8444989118086448,0.4751375173578621,0.8581754735792623,0.4490065069147112,0.9059507725755105,0.6141041732224313,0.6699976541653228,0.45250471035269757,0.709004874271137,0.28519470868641816,0.6069364291271809,0.44057685398628643,0.633464626395715,0.19090261358483704,0.8582939578110816,0.9688862909675336,0.5406572902101077,0.08386742680223477,0.7942500477042502,0.3811051450475143,0.889729502260872,0.4746099474067046,0.7269935720466361,0.4135300721348112
15,3.067193331422537,0.7790245019464163,0.6215026636764571,0.16667872733645875,0.4014146523898321,0.16811873963358193,0.7039580643576238,0.09887937229778929,0.8627123317497314,0.4940098724792832,0.9597653401020269,0.7500634902930512,0.9499783725105013,0.6658923662566437,0.7304109369029002,0.376614187531073,0.4461329895990755,0.017895044257960076,0.5942143847479753,0.40700547870804094,0.9587113151649691,0.7389151218023087,0.6621994338727524,0.3778115188368689,0.6903065432782542,0.5759111376663858,0.799841440347323,0.3188813157009258,0.5224835298093891,0.06172023516430314,0.6972808584811676,0.048380098732404335,0.7133254461981133,0.14522952841653658,0.5512155976879584,0.0405162191415807,0.7720837634017267,0.20501388176642713,0.8052001788412012,0.16187578463264896,0.6828320973260532,0.28595288259199947,0.8622895457963906,0.24188283687924836,0.8762223016222647,0.9724614460541735,0.9022092611801379,0.5810512597757278,0.47617412549539245,0.05358279751262958,0.8820553099527274,0.6106472780855625,0.9340594501047138,0.5020570826199706,0.7330223051767946,0.3487326040066763,0.6673534798534798,0.40183345908639545,0.13909261212388366,0.8442650442975028,0.46022373424022167,0.886938165096547,0.4904969359101032,0.7296622408572093,0.3315149605904021,0.5486955693047533,0.3380970501057333,0.589678047558309,0.20007533962214122,0.6404528941903488,0.44766680289617955,0.7875968722042129,0.3100523057047453,0.8665654475283594,0.9705201421693553,0.47125093068443896,0.05147596716955889,0.8077770372480317,0.39275036302899,0.8824898089672918,0.42408156496693733,0.7047671264186168,0.3796706482106877
16,3.010198444912847,0.7177314708800855,0.6268945450907484,0.18078221426924904,0.460331353914597,0.21625750500595406,0.728537429668712,0.06255154599822321,0.887928098999511,0.5853253974482113,0.9511581189097357,0.7587577066834383,0.9351390605746858,0.7056527752450286,0.9421828332809739,0.7237197390002121,0.533178822244517,0.03268021550274398,0.8281840985955418,0.6192315050762356,0.9746953838222424,0.8003369245166041,0.734716670014189,0.45909424962654044,0.7354293083057806,0.5846043532484648,0.7065474763494201,0.30014105300797655,0.6052911814209117,0.09449598357363782,0.7843640504196869,0.1057411348471255,0.7212275807243914,0.11364728004249232,0.6393010790673161,0.048922832677794514,0.8915739160784922,0.2941837081486514,0.8116195153443545,0.18749153256521153,0.6823359861402051,0.30841882011663396,0.8873178560828936,0.22554521652314896,0.8788519701248318,0.9733050802728541,0.9323357431200902,0.6622104103728467,0.6097504794337374,0.11510356236935901,0.8799644028483035,0.6079049946377308,0.9278533696004064,0.4677877036374833,0.7806427050067799,0.3936112863236097,0.6641483516483516,0.44134760681985924,0.1492115568205003,0.8614971682056702,0.5119462158919841,0.8691619020489553,0.4399925420328214,0.913195123845019,0.5798726266278305,0.7650690555083131,0.4897416872484992,0.6443980047376093,0.2307891779770742,0.6595557819435659,0.43906403945383154,0.712684885031429,0.2697377812354014,0.8730293452842552,0.9724280945777969,0.5363693319047705,0.07278559554957423,0.800143251023913,0.39024621486118494,0.8656632419076917,0.3708315507033932,0.7451762248550877,0.40972059024832436
17,2.8896156120606027,0.7781848713838638,0.6513785255154361,0.1832831384615432,0.45958523858359274,0.23915862942620036,0.6746252617951116,0.1037981521018427,0.921644721108783,0.6522311976491014,0.9421861444412909,0.7364399235294773,0.8895105937791564,0.6061462851114566,0.6997721752265315,0.3873343870989509,0.432011734376389,0.018818248962105093,0.5670712499706393,0.4076964834596167,0.9385839797892945,0.7264189616307482,0.6927773122441814,0.3593820722738151,0.7251093574099565,0.6443868974924303,0.79852531290422,0.31681328572438583,0.5518554121921021,0.10115643043261185,0.6731585625292159,0.051460934198887386,0.7077903896944767,0.08828990933962569,0.532095855778099,0.03747413289042735,0.640019703595869,0.1430325864979882,0.8206061854595287,0.19654693939897944,0.696428355352271,0.3177693912526951,0.919162657672139,0.28175815143801686,0.8486799991067495,0.9666998169936147,0.9249596531169522,0.6402695155364618,0.5130448981127714,0.07355323878733558,0.8821032380176518,0.623620344090424,0.940131288284742,0.47223056644744343,0.7324160694637366,0.36060652385485326,0.6440018315018315,0.43731350341178,0.16109549788252941,0.8860241274702777,0.5823112601689016,0.8529859401387675,0.4058281629060982,0.6584610606413542,0.2791424313308272,0.5206363076562179,0.32912243783834627,0.5971602815233237,0.17807975850234542,0.6419944472742947,0.4810226220098123,0.7692019008446906,0.2951856153878817,0.8383961688518577,0.9642277622931834,0.4714234477999527,0.05755350188126985,0.7914707566032361,0.3618258855705191,0.8867950159696112,0.3825544646571291,0.6959885798487804,0.37316245003573695
18,2.8139615208763593,0.8173421876192657,0.6645515102503605,0.24627785422083592,0.4673305125421826,0.21780279617700465,0.6906124777193756,0.10284087503729349,0.8590535688152967,0.5089546705571041,0.9404133713904607,0.7325462393849722,0.885395219611286,0.6463429290184407,0.7921364160156235,0.48504640116931586,0.5144704926152166,0.027635709955002818,0.7473000644488912,0.5752101442104749,0.9759741003018447,0.8590637001611446,0.7762821311168175,0.5674259414980812,0.6451695265404462,0.5192913922791109,0.6540242209336941,0.26141359739904124,0.6110421185106429,0.13741008766216722,0.7098844174056675,0.06813510929147151,0.7479766560796564,0.18564304660922806,0.5644755133255552,0.040223935906398944,0.7791552810409943,0.17047740712533135,0.8245280273100407,0.2357121881023451,0.7045305556801171,0.33926117602851635,0.9100529405444878,0.24071808171103934,0.8542890842761524,0.9678503620231313,0.9565963739699329,0.6991347254725517,0.5223666757603409,0.09590410160474047,0.8798850257634476,0.6191208033583324,0.91113943279135,0.4897772195706423,0.7534090659523032,0.38612386521283526,0.7252747252747253,0.4328131199848685,0.15187016148818194,0.821424261465542,0.4491071637088904,0.8066097625490873,0.3889653938232457,0.7549623417967234,0.3786191405042807,0.6709066651027769,0.43763062146209414,0.6600463511297376,0.30363358959823095,0.581963157217144,0.38420999667111455,0.6740794962064438,0.2543499995116322,0.8487055672780393,0.9661804955842278,0.48660041404107723,0.06944637890401667,0.7782667732292045,0.38273231536583313,0.830623044654649,0.3963024330225731,0.6955834128879411,0.3802539741370268
19,2.729913424248095,0.7967330738111594,0.7232832834501906,0.18156031963281605,0.3868976118836361,0.14771086309216228,0.7356152443266748,0.12257609101155047,0.8434900397268732,0.45935370648949575,0.902677216918245,0.6371719569228459,0.8865956806040541,0.6096856828451995,0.8809638960220412,0.5514516953049357,0.5136281955221417,0.023347354048723918,0.6608828693688867,0.41745134707091763,0.9375118858668368,0.6900245604468102,0.6483775854212155,0.3509450467506856,0.717769069078896,0.5836167127274543,0.6424230549357332,0.17668524788092377,0.6087647399501691,0.13202412049908974,0.7333283589615693,0.06512383319109774,0.7427454917710056,0.09896423219163333,0.5616491914155812,0.03344172529718698,0.7345701155665865,0.13767077381067938,0.865335365680467,0.27279435036686583,0.6749035715022915,0.3698389318423947,0.8594181767887346,0.2232985851262428,0.8671837233522066,0.9700646598855938,0.8736158545800616,0.5934983120652916,0.5469759725415835,0.0769779849352959,0.8974970201902708,0.5733695136689594,0.9232695314317128,0.4946876032885782,0.7449758748791411,0.3458975080920551,0.6556776556776557,0.37442614457558854,0.1189648366642415,0.7945220072657058,0.3860690111730764,0.8236453903595335,0.43695802017366636,0.8532525817221834,0.45646205160657344,0.5954467348913586,0.3346225110811446,0.5433869920736151,0.15627854369073846,0.6360394008429844,0.42368947515032995,0.6351301892711492,0.17528540293959147,0.8581339008217761,0.9668687949053059,0.484556313218443,0.05261785341628065,0.7967444960357077,0.3482686961267196,0.8575655714179197,0.38017134950803677,0.6877374768746637,0.3530213788696421
20,2.666022448974314,0.8047477291809786,0.6533018749947894,0.1833648041272783,0.4184692755727044,0.16476670913409583,0.7004437253560092,0.09674182390492951,0.7979979511926986,0.43533431082561297,0.9062592467345818,0.6367980976647573,0.9178156629280717,0.6917268638276759,0.7861574731797214,0.5262318862000752,0.4994069314097761,0.024531858628061835,0.7181355897845771,0.5132215282610948,0.929466674958608,0.6793636959951992,0.6840609755424487,0.4321393695399698,0.6851109997207766,0.5715776897351044,0.6468239991148321,0.236296085267086,0.6581945036523996,0.17508335759425786,0.77614304930352,0.10005793185118145,0.7923896019809084,0.18162978043269368,0.5646233814467636,0.03325383625304651,0.7996281524261823,0.21364264910564976,0.8717973072904188,0.2749882977535675,0.6963473902914529,0.3992903187538318,0.9080777037609974,0.28817419213986606,0.8599457756357812,0.968756191742207,0.8846727062061063,0.5945170130192867,0.6085310311554655,0.12020612539357861,0.9149910657016506,0.6527335758261289,0.9397254915665831,0.5720676038233733,0.7545583669579933,0.3756344460307543,0.6968864468864469,0.39372002228604674,0.129151032524792,0.756930093588618,0.38461557142682623,0.8298248112804444,0.4669182563380654,0.7472319279447162,0.41957626779799906,0.6440025804181451,0.392294269065391,0.5800132106413994,0.19672035056683818,0.6167035169128636,0.4344565071380761,0.6316050286404777,0.21575881553789358,0.8450238808033808,0.9635171440924266,0.5409137959213322,0.06712378625447082,0.8152437894597113,0.3759556022982362,0.8723268647981148,0.4053444411428552,0.6894616268912709,0.37095267034865587
21,2.566624404419361,0.807877261277765,0.6256736725387047,0.1692084794921841,0.4496830845051518,0.17498604179965555,0.6773402400005128,0.0760633943036744,0.8274501807876129,0.46292331063609693,0.915881134547914,0.6597011857757298,0.8694498670364582,0.5191095271897258,0.9009196661898214,0.5835298636103029,0.5139885450135251,0.029132182220875043,0.7050633725979274,0.46810802309448146,0.9693310836936273,0.7764326618724233,0.6225916435279671,0.400215113777153,0.6487194715979623,0.48202013315583564,0.609078766771429,0.2478489509716687,0.6361743810622105,0.17038730354105833,0.7258099026794829,0.07016447654194945,0.732741735694724,0.18009999734622995,0.5228973606674139,0.028098554693937537,0.8157538527167395,0.14295716327018412,0.8165807547218991,0.23674604092745996,0.7068557654597001,0.38585622969033284,0.8546020320837564,0.2745402457832271,0.8475705008090008,0.9656717295771604,0.8429594309739031,0.49166693366396297,0.5445273327626269,0.08761456993350838,0.8856875510292039,0.6438652361090653,0.9263384502839398,0.5865042908363195,0.7382180684520467,0.3582096784543924,0.637591575091575,0.41580047820428745,0.1286595712630879,0.791982755392061,0.3941629370626335,0.805442855108145,0.3069296732875185,0.8572707508346921,0.447305920500561,0.6280382957511069,0.33923573275976715,0.508021478680758,0.1841534399609924,0.6037632031166913,0.36471244791463486,0.570433499482961,0.20070393576953435,0.8380114309245132,0.9624968427887378,0.4759293224617285,0.0492100384840245,0.7659162119783298,0.3576441437183227,0.8532164441543665,0.46831397754778364,0.6761522271741368,0.3502940550881332
22,2.466285893411347,0.78398595527059,0.6792790982684018,0.18916301259478968,0.47997954991571073,0.26105002397551413,0.7455611441576875,0.08705672104481124,0.8426437466760422,0.4772258381678852,0.8896584436567317,0.6436269002999789,0.9245477418834172,0.658321061908766,0.7486241915981219,0.38214087730881857,0.5247399768868344,0.028179765105855972,0.6174843116983908,0.3485571300386946,0.9520225576853225,0.4686999960055264,0.684045797707415,0.3680947663569475,0.6199865556827472,0.4793648436603525,0.7116295190324271,0.26279491693353263,0.7659049645799613,0.2164409568511467,0.8118651713568861,0.10401894318353785,0.7520061572152288,0.18372365997815604,0.609654654539969,0.04632756457042686,0.7287194452565195,0.22861960025984454,0.8497716366275603,0.24197863531537517,0.6794548755914008,0.352599564173259,0.8275325202967568,0.22806392394378153,0.8164319921718777,0.9595428219735578,0.8100736106803463,0.4952297024511615,0.6322475127904992,0.11977708214535876,0.8908051999415205,0.6743753926089027,0.912473709402323,0.5282127895389396,0.7502747725115424,0.34743024963057384,0.6845238095238095,0.4376050312189686,0.142736153581916,0.8289254994652673,0.4449130127814989,0.8304230166642929,0.4315916643508447,0.6691420141315321,0.22992525521566648,0.5511925637040729,0.2977445010024189,0.5862410030976677,0.17727621506475344,0.5612411909253237,0.36501369701904407,0.7011543332520013,0.23502900306036958,0.8074473089385441,0.9576931345734148,0.5371626836399295,0.07759342780774917,0.7503604782039972,0.36111968741188766,0.8368464435313117,0.3844180068267531,0.6748117972310758,0.342087813224693
23,2.463531312210197,0.8606976566674299,0.7186715799478103,0.21044703523985048,0.4371588195766555,0.19543535399509304,0.7583950686738159,0.15076869941887608,0.8155155213215165,0.47612549407627863,0.8932189606620007,0.545837816174795,0.8864255394324001,0.6420835923476198,0.8218158355378729,0.519367410392194,0.5628027253216158,0.04545057323188244,0.6558017033426871,0.46011173749536083,0.9669394895589137,0.7397482739109296,0.6877409706279496,0.4408518625356992,0.5956329517891554,0.47760004033980585,0.6939764126463095,0.2834880333321116,0.7800627047628106,0.28955963715946653,0.757458831962996,0.09186546995883939,0.7545426024046388,0.14220262736490216,0.4759711319418056,0.029161761059126275,0.7982767930123084,0.24578499488558744,0.826938640960583,0.28124654594779486,0.7074990373165296,0.41923858402059594,0.8987043335834711,0.3010438875689712,0.8443931276556438,0.9652764496897834,0.873528074693476,0.6072195661300178,0.5521666910807183,0.0871754432608722,0.8903125187501953,0.6505496225600059,0.9008265053145557,0.4703616402566614,0.7521067912260938,0.37569239047512,0.6923076923076923,0.3855786251318351,0.12322849790596319,0.789633260787243,0.428580901190139,0.7984190286284005,0.41462214071896786,0.7665175867691592,0.38471581217921885,0.576583291792511,0.34961058240638665,0.5747392037172012,0.19146459571247212,0.540354098213836,0.3598921393876166,0.6847589668514065,0.258053189523195,0.8386509074404709,0.9625299196286065,0.46729211687580585,0.04867916194542239,0.7646994079142042,0.31888901121493574,0.8094718639656726,0.36029836575605456,0.6663915298406454,0.3500470264640816
24,2.3670648701381487,0.8551255629341271,0.6917568592795151,0.19232030371653355,0.49914698650112,0.2043098720540762,0.7753979534939368,0.09603918456278523,0.8279485513790186,0.49312445228125856,0.9109146525978752,0.590708860453471,0.9217626797615909,0.609012598122265,0.726400642829448,0.3875490628795493,0.573363664071727,0.06383137480707698,0.6346149428116641,0.4150604720685922,0.9676325876895318,0.7919788080786094,0.7081446002542199,0.42104999211120175,0.6842736964501925,0.5348856994965829,0.6743457397342916,0.2624770839586854,0.7878376198005743,0.27944423976776483,0.8510771899842047,0.15984226846019303,0.6946938079113841,0.144367722280003,0.5954039389489644,0.035452423607620354,0.8154607598637305,0.2011923948764366,0.8592862759093348,0.3271868420485178,0.69615556537813,0.3939191670994645,0.8805254455036761,0.2754714612735651,0.8252579159248289,0.9609163780540053,0.8874450939464805,0.5740034956457623,0.6300779323403758,0.12395116260202171,0.9141098895155486,0.6605478365705316,0.8576763940599013,0.4587008548402966,0.7650273609977408,0.37143630814295653,0.6513278388278388,0.4441707801966682,0.14136038339139403,0.7730619582450781,0.426887808521158,0.8336571916902354,0.38789242987498146,0.6711716748194736,0.24695912310713766,0.5607028707151863,0.30923430229436893,0.6042017811588921,0.19554102742311913,0.6254381447626938,0.4138793056305634,0.6652718231145502,0.23660934870600492,0.8206381088928566,0.9591077898579192,0.5300633773403309,0.0679916058556736,0.7961609831776839,0.3571480203878792,0.7661092879095691,0.33034419979618024,0.6742206651686015,0.33941294540386496
25,2.3347525906721134,0.8807724601175483,0.6217199263007829,0.18389770704307318,0.4886995040811123,0.29235640417312736,0.7167307460866927,0.14529906438719642,0.804192202396462,0.462929385393468,0.8811854573732665,0.5731425720640924,0.8740764643704948,0.6278321771351935,0.6830107225278845,0.32353670728869005,0.5286854069568089,0.03472588018414527,0.5478038951841588,0.3272826679811154,0.946311032517929,0.6240769748330552,0.667413410151176,0.40293724477344917,0.5806744973596107,0.4605905507498365,0.6624032506210665,0.2393888107778279,0.6681347031459379,0.213682673811589,0.7384144837351672,0.10132030221816025,0.7260623571159834,0.12441660331544474,0.5454796512460545,0.044982357516307435,0.8088303730706583,0.2480390005648509,0.8130241472379026,0.3206691234651909,0.7036858498697797,0.4338377624734631,0.877672394311351,0.2590731767541478,0.831815673703721,0.962517165049383,0.8725893533998509,0.6138339665932275,0.5033101422241693,0.10025012346772168,0.8676272722520529,0.6378051573486434,0.916034023640345,0.456408826107454,0.7259841131107856,0.354416630210379,0.7142857142857143,0.4211569418774144,0.1488585747225234,0.7766698431589592,0.4171059302231998,0.8080635644088143,0.4531931242730438,0.645264383880736,0.24171270524291627,0.5003397061842066,0.2545003534476549,0.5632248770043732,0.17508679336340616,0.5084141706455603,0.3312417958112455,0.652905294712259,0.22826387845036558,0.8272413990032883,0.9615298320043728,0.4256837125683259,0.04428909989567051,0.7281770339294751,0.3522972755312978,0.8310898251054342,0.3293921656714769,0.6406858960399038,0.3281226273864311
26,2.2575812097924617,0.8364247004045493,0.612670262699359,0.18816984302869266,0.5692635841248619,0.3245748694604045,0.7324897258103452,0.09714520377253624,0.8531886348304379,0.4937928096473656,0.9127307028826664,0.6609698447841656,0.9229819018018478,0.6833004668805833,0.8071764557310009,0.5035429788895318,0.5672701065491536,0.03329737060675317,0.7030504628704565,0.48952888376053,0.9135731867462332,0.5246464320689724,0.6594749824884978,0.41765692015001965,0.5992214773885607,0.46033174685455464,0.6649412259048602,0.21597770613590697,0.751138689280237,0.22784447767674626,0.7927131586442997,0.1196242825561155,0.7567056273647343,0.1880611669941561,0.6328321172900917,0.05756355862083453,0.9232738098789444,0.38314650392843463,0.815418888397677,0.3135012862513582,0.7318333977494916,0.4291906141309326,0.9249095120504468,0.3103338655439244,0.8413413780012708,0.9655913357271404,0.8905532757905957,0.5993285018082688,0.6078826700998646,0.10007551167570262,0.8988761894942889,0.7090784802150675,0.9411663237603718,0.5187210926907195,0.7702568364473306,0.3851921443792084,0.6538461538461539,0.4843284272506543,0.16780680533452225,0.819175471376198,0.4443975853996803,0.8497873725761492,0.39670363791908203,0.7616398788725832,0.3681879218799707,0.6149016215582206,0.3509164910331503,0.5371498041180758,0.19787338471566657,0.5318109050607049,0.33259890497247135,0.6545150870833188,0.19542713955248528,0.8406906947525354,0.9642925503027053,0.513275873027403,0.057716910127490625,0.7577099747513157,0.3578408697263696,0.8472310318095045,0.3946224841064564,0.6843513451863886,0.3523653904225042
27,2.207350829577375,0.8559651934966797,0.6609015648578122,0.2079442195652449,0.5813655773999638,0.3192637919084015,0.6752626140557892,0.14965645128697036,0.8438063734326089,0.43903886766727834,0.888153343652773,0.6385736508420752,0.8889131928178036,0.6209839100502752,0.6910781138611496,0.356122341016513,0.5801385519982729,0.05443672582672645,0.6753164929635518,0.4751717754204338,0.9353610509494722,0.6981981935297602,0.5986181631052147,0.3450041711566575,0.452168706608359,0.30834732643044166,0.5895819557468736,0.19165898173077947,0.7714013971001595,0.28421944100080093,0.8271140057866253,0.09293620225761827,0.76226880756765,0.19255832029560846,0.5576845594651828,0.03783486906688528,0.8575378559623886,0.28812163811390445,0.8126998471896836,0.32438088645872504,0.7001059485652992,0.41440546443190723,0.8697767984492838,0.23336691246524682,0.8086515571994972,0.9583734099052761,0.8741684809360598,0.6021384475904165,0.5125999352243696,0.08054069202263195,0.878734239121446,0.6690259765399584,0.9258443983877697,0.4846309953614166,0.7392020589386561,0.3641128331516136,0.6586538461538461,0.4862618034839423,0.1619767179437922,0.8354937642265935,0.36395461910584553,0.8193490955704315,0.3597313180514572,0.6504542278127183,0.2494115887272445,0.587114330117585,0.34515931790080095,0.49671726949708456,0.1523411325447491,0.40566803432390525,0.2266626621332043,0.564879686755667,0.1601548647695064,0.8030074182281617,0.9568812372079437,0.44167786514609475,0.04460345363961253,0.7201599544251569,0.31632933993760587,0.853285899451201,0.3655945290741557,0.6386724457532118,0.30856673175299315
28,2.252677669516775,0.8753530264865278,0.6017961266225916,0.15783419333454504,0.4765349399767439,0.2407898265830578,0.7236775296653652,0.13474095488617277,0.7468997065993725,0.407502470076146,0.8208655480340394,0.5105712143606833,0.8395525693162269,0.5311039411335601,0.6302558951897655,0.2618469481639586,0.594688734236694,0.04766383967747833,0.5804505083675768,0.37555247610286957,0.9314288006157667,0.612691197489717,0.7323899319001137,0.47933192727541496,0.5772756173727737,0.45013800463749215,0.6207342019921547,0.22943597700949503,0.7312087820635844,0.2796396636785498,0.8285299981874208,0.1612492129195038,0.7149069355542306,0.17267205106679312,0.5723016633791171,0.04041892520756329,0.7816633504167438,0.27855657124798866,0.8625902601718441,0.3736244089509987,0.6887916596378317,0.4269100676795689,0.8690138305680293,0.22084146767561594,0.8286893376344697,0.9619961173669739,0.9330631705639824,0.7211122629292566,0.5677749302183691,0.09878762814219202,0.8870409152352935,0.5906869267188171,0.8059997109716711,0.3385935732707909,0.7287740251727606,0.3501650710609694,0.7225274725274725,0.4187840124341338,0.13344892551142895,0.7370172321239081,0.3550798458654083,0.7910635440616924,0.34938223200196733,0.5769733674974765,0.16446022672570773,0.5162020936574494,0.29315751085814534,0.6176231095116618,0.22777838151979682,0.523925978583943,0.32900778576573486,0.6189828854264701,0.21613912495080553,0.8339976074110144,0.9631578718978362,0.4995130931410827,0.059524941389223346,0.7472642649535541,0.35243132392598797,0.7255239023254246,0.27037566645829153,0.633905924260651,0.3094953197391945
29,2.217733976135963,0.8587130753377604,0.6526279940306969,0.20137975118557191,0.49973937870489454,0.24603765421205237,0.7236059610595571,0.11428645248718916,0.7992846128860699,0.4445518897898775,0.7913167165529046,0.48035179678872053,0.8672599914572647,0.6315672300191414,0.7177301062235264,0.3930667435466798,0.5452675158426781,0.057058934349354065,0.5885174470516805,0.3700385679377139,0.9162067793829894,0.6987124228380195,0.6347571582389488,0.418376734336991,0.5400060493311024,0.3973167414353594,0.6063208496558119,0.19898094968800936,0.7498412000183426,0.23417737158990265,0.8672789913882041,0.15714559287171612,0.7526558146685716,0.169064615159716,0.5683551718277694,0.04086786019976392,0.7445244587104511,0.26022714304069744,0.8792425079337391,0.41442082254697643,0.7067927728629317,0.4097132983585289,0.8823070074082185,0.2558537140143372,0.8318642340478661,0.9634009203542976,0.8869042272122808,0.6141855037807783,0.6009337366803431,0.12548969087380038,0.9235621610704111,0.7112347290653893,0.8578273428827601,0.42586720019423646,0.7359511610434623,0.3628220896409546,0.6980311355311355,0.41365040922856144,0.13140897488901188,0.7739741247654043,0.3706246172660883,0.7794687366472012,0.3882642789884271,0.6618961099464244,0.2818249093231456,0.5304952643462453,0.29656972754169464,0.518357097303207,0.20668942743201318,0.49732131362264975,0.3070161718833211,0.5996921003404324,0.1875491570177626,0.8299931769133198,0.962536820093575,0.5364453756333194,0.06852092893991456,0.8001548659717977,0.4007419690411193,0.7723510720118646,0.32833256041709447,0.6428166372275356,0.32750662856943064
