epoch,train_loss,train_accuracy,train_1st degree av block_rocauc,train_1st degree av block_prauc,train_abnormal QRS_rocauc,train_abnormal QRS_prauc,train_anterior myocardial infarction_rocauc,train_anterior myocardial infarction_prauc,train_atrial fibrillation_rocauc,train_atrial fibrillation_prauc,train_atrial flutter_rocauc,train_atrial flutter_prauc,train_bundle branch block_rocauc,train_bundle branch block_prauc,train_complete right bundle branch block_rocauc,train_complete right bundle branch block_prauc,train_early repolarization_rocauc,train_early repolarization_prauc,train_inferior ischaemia_rocauc,train_inferior ischaemia_prauc,train_left atrial enlargement_rocauc,train_left atrial enlargement_prauc,train_left bundle branch block_rocauc,train_left bundle branch block_prauc,train_low qrs voltages_rocauc,train_low qrs voltages_prauc,train_myocardial infarction_rocauc,train_myocardial infarction_prauc,train_nonspecific intraventricular conduction disorder_rocauc,train_nonspecific intraventricular conduction disorder_prauc,train_nonspecific st t abnormality_rocauc,train_nonspecific st t abnormality_prauc,train_normal ecg_rocauc,train_normal ecg_prauc,train_premature atrial contraction_rocauc,train_premature atrial contraction_prauc,train_premature ventricular contractions_rocauc,train_premature ventricular contractions_prauc,train_prolonged pr interval_rocauc,train_prolonged pr interval_prauc,train_prolonged qt interval_rocauc,train_prolonged qt interval_prauc,train_right axis deviation_rocauc,train_right axis deviation_prauc,train_right bundle branch block_rocauc,train_right bundle branch block_prauc,train_s t changes_rocauc,train_s t changes_prauc,train_sinus arrhythmia_rocauc,train_sinus arrhythmia_prauc,train_sinus bradycardia_rocauc,train_sinus bradycardia_prauc,train_st interval abnormal_rocauc,train_st interval abnormal_prauc,train_t wave inversion_rocauc,train_t wave inversion_prauc,train_ventricular premature beats_rocauc,train_ventricular premature beats_prauc,train_mean_rocaucs,train_mean_praucs,valid_accuracy,valid_1st degree av block_rocauc,valid_1st degree av block_prauc,valid_abnormal QRS_rocauc,valid_abnormal QRS_prauc,valid_atrial fibrillation_rocauc,valid_atrial fibrillation_prauc,valid_atrial flutter_rocauc,valid_atrial flutter_prauc,valid_complete right bundle branch block_rocauc,valid_complete right bundle branch block_prauc,valid_left atrial enlargement_rocauc,valid_left atrial enlargement_prauc,valid_low qrs voltages_rocauc,valid_low qrs voltages_prauc,valid_myocardial infarction_rocauc,valid_myocardial infarction_prauc,valid_nonspecific intraventricular conduction disorder_rocauc,valid_nonspecific intraventricular conduction disorder_prauc,valid_nonspecific st t abnormality_rocauc,valid_nonspecific st t abnormality_prauc,valid_normal ecg_rocauc,valid_normal ecg_prauc,valid_premature atrial contraction_rocauc,valid_premature atrial contraction_prauc,valid_premature ventricular contractions_rocauc,valid_premature ventricular contractions_prauc,valid_prolonged qt interval_rocauc,valid_prolonged qt interval_prauc,valid_right axis deviation_rocauc,valid_right axis deviation_prauc,valid_s t changes_rocauc,valid_s t changes_prauc,valid_sinus arrhythmia_rocauc,valid_sinus arrhythmia_prauc,valid_sinus bradycardia_rocauc,valid_sinus bradycardia_prauc,valid_st interval abnormal_rocauc,valid_st interval abnormal_prauc,valid_t wave inversion_rocauc,valid_t wave inversion_prauc,valid_mean_rocaucs,valid_mean_praucs
0,4.72880739155907,0.44073439169213185,0.794564868648402,0.16759279235188154,0.5752846762383084,0.06416534369552358,0.7509415647447097,0.02205178975131246,0.8650741274869889,0.12456823646849473,0.9582814469961538,0.752471812012081,0.9467192708783548,0.6108663393280256,0.9751249260293846,0.4737459864702527,0.40874216768463717,0.00549989215703456,0.6451094773301379,0.022158425607870496,0.7220468380491727,0.04251454214104286,0.9525065894935314,0.28424321676935443,0.5592516731668694,0.02830057154181715,0.788534014093713,0.31794567132146223,0.49652237601859206,0.023595488266122695,0.605848201087857,0.061618773329945226,0.9240099943684685,0.6831078442944614,0.7682142217241269,0.18160631774583527,0.6358342734308791,0.02345509764143216,0.6753603979959244,0.012521183791073044,0.6258098312247692,0.049314802846593536,0.6145646494911201,0.06023932541558705,0.9612997354387688,0.5456323446433641,0.5322133549011114,0.11734157083774174,0.80110609057827,0.42385384862103903,0.9751128477114333,0.9130022443644731,0.5469784168869356,0.034860538724461765,0.6287311861639729,0.10321009202463918,0.692402558859342,0.015453365998434887,0.7295067777400691,0.22017633779147702,0.4503987478571961,0.7633251185450878,0.13997953608666097,0.5642263422630724,0.05661141958200824,0.8638127541278963,0.11475142859792059,0.9566543038528078,0.7433475379496218,0.9688901574966277,0.5162089072700423,0.7225031852254835,0.040836628990204,0.5733591090984179,0.026589653777757412,0.776148493614041,0.26508717486406225,0.524550075455253,0.027714820288663688,0.6042393277240101,0.06257976540230388,0.9185888917193847,0.6670549391437607,0.7691756848140151,0.17594810844955527,0.6514157677639688,0.029976734118685205,0.6162441543955555,0.045778249143308344,0.6249288073013548,0.04466693641039858,0.5363987291988688,0.12321941429117528,0.7960560931650316,0.4030286348873925,0.9759847614863684,0.9132538094118045,0.560310846860369,0.03546760005381924,0.6448612436812211,0.11282041839828269,0.7205836923894418,0.22724608585587136
1,4.278879589455305,0.5248565253037192,0.8738680946274434,0.3986467406049064,0.7696687468452066,0.16131165593319072,0.8041850263457719,0.027886207291509105,0.9184417430595855,0.4077939269952409,0.9751742480545753,0.8511313765291028,0.9208019377379479,0.4781016589764682,0.9785381115699587,0.4905143599861322,0.39090744676834954,0.005664322522887381,0.683696175526815,0.05405643161510898,0.7783797003094323,0.06231813387592817,0.9650958102649568,0.604332604996364,0.584975338716674,0.04060892357849123,0.8638506016380721,0.48214537420424963,0.5148709344878145,0.025344452944992085,0.6938745411923162,0.11265912960293764,0.9529176112547436,0.7999694155724233,0.8456372971316389,0.3340275023103487,0.782687331975103,0.14634060913740563,0.7209544169934197,0.017606669197944846,0.7364943113976177,0.12255922265702046,0.7437126040067217,0.1242424942232462,0.9533785234528375,0.3783866607142486,0.5901363037941262,0.15752849738890862,0.8572856051983404,0.5469517466227213,0.9819487799139014,0.9470269013136621,0.6087836774128155,0.08090476653548179,0.6819725330379394,0.1372662341163276,0.694710625844947,0.040393518858690594,0.7809624313771097,0.28698998351092636,0.5317134978012968,0.8544170347054469,0.3563843351626209,0.7632431719254982,0.14112283250691443,0.9086784499543915,0.34563070258626327,0.9744021108886198,0.8398941703572719,0.9696115758410024,0.5120237744513663,0.7617529098377251,0.05879231365799134,0.5789357884393558,0.031318985267565005,0.8548785668236834,0.42664380541337066,0.535791052700689,0.030404821331404472,0.6885383883170025,0.11389036428536561,0.9451143520287579,0.7796711700069685,0.8367202698602509,0.27065163797203035,0.7783247603616907,0.12550731259147288,0.7224451112972939,0.12008819943167702,0.7483767714005954,0.11172225120757405,0.5882887390028378,0.15192328313336745,0.8457635664307136,0.5210973048654717,0.9787526911140569,0.9372310944216726,0.6095959465258863,0.08098453286169517,0.6885118071814715,0.1409282519295902,0.7816071532318485,0.3047955571720827
2,4.066563105157306,0.5532284912176095,0.8910288194640926,0.4327149988167558,0.7406158639627014,0.17196073852470015,0.7957383483446384,0.02354183972534845,0.9294582734000971,0.5287250024583767,0.9798123231134044,0.8595052133992092,0.9254938302634199,0.5015854617718386,0.976613195721476,0.43710132349472036,0.44433233160467095,0.00753927262107646,0.7113710608967109,0.056605712965021523,0.7679241898620678,0.06675259532023707,0.9581774820278517,0.535271212510424,0.607612522498213,0.05081518365261409,0.8870045756782696,0.591663966078237,0.5185768849026733,0.03317752950181965,0.6907907859893744,0.13930864298587192,0.9527821425257419,0.8137926972471463,0.8449428528766609,0.38088293385374183,0.8396253940971176,0.17308765115924643,0.8199172726740034,0.0860830792574272,0.7312589190257325,0.1372559951365006,0.7493392107362695,0.2319542686959742,0.9560817106946584,0.36355580706417007,0.6036178387595512,0.18272821428098426,0.8785259607584763,0.571679495369575,0.982030118137334,0.9421542716443018,0.6003599302136506,0.08408257710249559,0.7215463315294557,0.15949293776682805,0.7791396419233692,0.03980035873337135,0.7958470647029171,0.30724353504064333,0.5498248490720727,0.8658174527649675,0.3962018240431479,0.7352535541482187,0.1461771670382172,0.9226616456439668,0.45785398792073223,0.9781551221202013,0.8479974190160148,0.9755521129224579,0.4499694980400312,0.7489729811891235,0.05444559532246254,0.6043800287663235,0.03946463705259011,0.8762823732080411,0.54131945260883,0.5501050712019746,0.04213127443403235,0.6894809218103304,0.1303522022011755,0.9448578914221826,0.7813358200776328,0.8382438856068584,0.3296168322543788,0.8303517628312419,0.15316550081842267,0.725576479494275,0.14024449495169916,0.7438209647417283,0.19907255929026266,0.6047802021200477,0.1634794737587329,0.8654789164219792,0.5280392197614374,0.9803613382608338,0.934562090302139,0.6164537061597883,0.08900462007653206,0.7230052775982433,0.15186408630263584,0.7909795844216392,0.3288148877635554
3,3.9330820915094886,0.5559613425753397,0.9123543326811006,0.468230626847874,0.749648213133876,0.14023506381185094,0.825249485732887,0.02689123107198016,0.9305685069151665,0.5262596809574103,0.9754969431086438,0.8730208603149842,0.926101596060539,0.4870989964117138,0.9812589576029066,0.54694030717552,0.45453135164890157,0.011648755771498803,0.7462930983661833,0.0676576861673969,0.8232624828354332,0.1269065450681944,0.9688105986243716,0.556801791199262,0.6161831844218004,0.05698318158775534,0.9120183389770843,0.5740387825188967,0.520976329620884,0.030430852180522883,0.7355536277792418,0.17776606219495586,0.962329482187082,0.8348958700929971,0.8456405321355347,0.3826846170884428,0.8411265901410735,0.193003424915681,0.8979477771717819,0.08702120815234868,0.7679156254340087,0.17111905179197812,0.800252296575826,0.24932963915507617,0.9657877986500183,0.5311860421440002,0.5937792270990688,0.17966886929094628,0.8926151990714236,0.6142854800985582,0.9834481460132685,0.9466097708170425,0.6383336939584392,0.11347420514399638,0.6822723546294182,0.15012717877165785,0.7884134610751273,0.0399041687427088,0.8120774725589676,0.32729356962447326,0.5397629872549751,0.8900869466201434,0.4179762346763677,0.740576836854789,0.11552108758861349,0.925951875990308,0.45120239707764487,0.9725246180724633,0.862869124321955,0.9758223570629481,0.561873717874356,0.8110572953254213,0.09608776832483032,0.620604377607838,0.042945819686909165,0.8968928095149472,0.48725947751249177,0.5514901223079222,0.0401850343471962,0.7215490649258938,0.14098093791662306,0.9508076112031023,0.7908832308087683,0.8334023452140856,0.29794103785979786,0.8185676729148295,0.16607406896900181,0.7562968606136582,0.16361698637098862,0.7908716230813042,0.2544416175058725,0.5894525767318057,0.15989457542451133,0.8722137783073094,0.5553604412478509,0.98169825674898,0.9299871404798287,0.6480449686328043,0.11071394601718512,0.6854480822158208,0.14342267817588622,0.8016680039973186,0.33946186610933393
4,3.840664886426654,0.5879605475640357,0.9137456997220453,0.45950880458192017,0.7265254589688499,0.09902554202882047,0.8107215133278034,0.029379841525909535,0.9624077078446717,0.7189190112856553,0.9857571557231711,0.8978957141108417,0.8741109364018685,0.44475947611185224,0.9810818989927271,0.5338285965757835,0.6639718321977188,0.024530823591458736,0.7299559806587215,0.06507884570370091,0.8537125563877431,0.141374107814409,0.9605429027667929,0.5774755520430795,0.6157585366241507,0.051743930672890306,0.9011839010299848,0.45924051002197375,0.5561350720872221,0.03232484671314029,0.7411002058722416,0.1816227120728222,0.9656260479128137,0.8531894600484913,0.8944498226925545,0.4776069660018558,0.8549123297051066,0.24147455315065486,0.9147181005619098,0.10090678514944922,0.758504136656951,0.17444241842196867,0.8088603511397631,0.2943107261332873,0.9536768944543472,0.4805605755081899,0.5813796307408792,0.18236968837209036,0.9071469138804874,0.649945858090608,0.9858496189068229,0.961654660416561,0.6740512025349669,0.13065098064222336,0.7342763014550576,0.1843871511396851,0.8035434729132722,0.05759788881132424,0.8254895065057372,0.33949307238359455,0.5601103078184393,0.8975476010378287,0.40258968703177656,0.7216016084739113,0.08980324802746459,0.9575099101617165,0.6510255208223356,0.9818470351154472,0.873347387324048,0.9788063219634364,0.5430740935014745,0.8349225715846783,0.1264813641072151,0.6149599122769542,0.04206295435462468,0.8838799612161193,0.3791636716791442,0.5716434782112252,0.036943757918620354,0.7231953125823039,0.14816093201561506,0.9543381947098035,0.8018508258517943,0.8774543341642523,0.3842662135490217,0.8270421303053431,0.21075132858562434,0.7334914143044543,0.15275998387772632,0.801928234954142,0.26373962695043274,0.5826186692121453,0.1614334200094772,0.8846546113364178,0.5762233034773995,0.9832136140826833,0.9511649501681786,0.6901943278103777,0.13148760809486618,0.7280241857817309,0.1666140332668816,0.8114436714642486,0.354647195530686
5,3.7553097835277396,0.5642592730615389,0.9017024784785553,0.4932693517992668,0.7997263929338216,0.19307982917152874,0.8368084357455353,0.030710929007607527,0.9503098309969377,0.4911382478928342,0.9832030599681635,0.9032386105257334,0.8974789781247533,0.4874369996445633,0.977833631336816,0.5315853706066425,0.5594086552517008,0.05380780835094313,0.7785838973470737,0.06851546221072023,0.847750904045596,0.15596576731568865,0.9644308142901531,0.58972174557104,0.6142493951476958,0.065185005923708,0.939332823842523,0.6441123799724615,0.5770675160265674,0.041882768676194546,0.7521455296791026,0.19338625540142368,0.9706415986189949,0.873512399612423,0.8630053802012384,0.43336019435094564,0.8361202199278537,0.23581835099913612,0.8872028849869305,0.10139576625119609,0.7883958173905505,0.21638520890151308,0.8092842761960409,0.3000977962354673,0.9552333485331147,0.5259708049877079,0.5691574248949653,0.16726167996935934,0.8959245241054585,0.6475372410041231,0.9857373012694852,0.9630628524777336,0.6447376410421563,0.07552573007538754,0.6515641374803982,0.1603732025493872,0.8112653227983903,0.051192369623045283,0.8231536507378775,0.34623321889670644,0.546694492062309,0.8714089581859146,0.4265081992168671,0.794895232023763,0.16598190312631353,0.9443555986984118,0.40401952484258025,0.9803334000121818,0.8899635169664444,0.9733206421405914,0.5277645627289484,0.8149039209230728,0.10995435401998026,0.6120765867760357,0.04831247284312371,0.9258770182005447,0.5528685258233179,0.585224829060073,0.046670101352509756,0.7342086983590369,0.1774578266644232,0.9569326271246409,0.8169663915319894,0.8342745126035922,0.3348507513902006,0.7898979532627983,0.17247657668372485,0.7702898841995652,0.17103127104644894,0.7897597193815283,0.2625839466199897,0.5597411800619249,0.1520826079453264,0.8682098284380129,0.5632253564339798,0.9836903715921119,0.9530254296104421,0.6530037675139799,0.06943707852135772,0.6563853374367051,0.14885857997960214,0.8049395032997244,0.3497019488673785
6,3.688365529268911,0.5168815681597972,0.8954377922836713,0.4784767203120236,0.7124307978227303,0.1187813329212869,0.7796278647472591,0.024439742871950082,0.9276447217687802,0.4897486457664363,0.9786506078005885,0.8722520343607622,0.9069380527065474,0.48016770354828175,0.9864505049091037,0.5667625742487948,0.6538477003698757,0.05390548826688159,0.7269004831373067,0.07129277927395636,0.8317159595504796,0.1617622407678563,0.9672702989944071,0.654530163533976,0.5970269137857265,0.06692693382915799,0.8647374862060193,0.44007657838835323,0.5556381180515274,0.05735528423926432,0.7582537225840492,0.22236840895544943,0.9701739635262348,0.8765406669234874,0.8736570592637514,0.46802816340523323,0.8569308965451387,0.2825687100523365,0.8384401069976688,0.12027166449592175,0.7647693590045924,0.20903591609240513,0.8453127092832975,0.31768829076769867,0.9689242416673133,0.5795270344525829,0.6071190845017335,0.18154146495451007,0.9096496859263485,0.6928600678818922,0.9911981922327553,0.9711102399364892,0.6502720742700816,0.08497334333211341,0.7611754450025965,0.20294398117546106,0.7692321273318642,0.07581780162897783,0.8196223560811232,0.3507769277279835,0.4872177088767981,0.8611238806334334,0.41013334369469756,0.7051115400063516,0.10345573478120121,0.9163833528168656,0.3749621815926158,0.9773287948441851,0.8517618953106715,0.981389754662517,0.552698195749196,0.7986418116377076,0.12141655445705264,0.5957904330613348,0.039770133839010485,0.84815256589213,0.3564812613134434,0.5595784877359048,0.053048216445151126,0.7282228375508605,0.1642885301277139,0.95509653759606,0.8143681869857721,0.830992283757816,0.3578245407912663,0.7994476187925659,0.21819608082216388,0.7488506627844609,0.16955588561264032,0.8146040423424711,0.2729338345835446,0.5996249618420478,0.17061832221373413,0.879408272758559,0.5796283563612371,0.9871398306717637,0.957006868611731,0.6599778736729056,0.07996338825414501,0.7541371148273545,0.16907591124589988,0.8000501328943648,0.3408593711396443
7,3.630239348906629,0.5765571041713249,0.9277002682312397,0.4604453604341021,0.827948303377009,0.23883037410022587,0.8433309017176227,0.036546956122641555,0.9659140034795695,0.7407206807248221,0.9812091995101914,0.8742438401050069,0.920940613525408,0.5046302421161378,0.9802138243921684,0.5642579207011102,0.707749394002446,0.0659286250296661,0.7685793698618717,0.07694236712898321,0.8655716106629341,0.16978725840944575,0.9705913949070675,0.6680469543342892,0.6793801112901121,0.08875300962712201,0.9406406480077006,0.6498223556667245,0.6307251134730223,0.06851999890634058,0.7701406516554915,0.21299276651521332,0.9695244055694566,0.856095907302977,0.9067914307631021,0.5246056258497469,0.8838436923202777,0.31672939168827774,0.9068129265903057,0.18401276894519258,0.8015677328640524,0.2652966116142257,0.8102097127832422,0.31143096145821464,0.9693693224475969,0.6210948793605496,0.66697826192624,0.21276808550261084,0.9146210747543166,0.6723680880814328,0.9859621578509808,0.9649980905693819,0.6582236062558513,0.07478030555752219,0.7794022838611427,0.21440188952080447,0.8142607621186946,0.08020325803543292,0.8517215277928256,0.3828305204788643,0.5551911753745249,0.9035598500191137,0.40518227864963297,0.8178218815968914,0.20267431032856534,0.9572768631953875,0.652483662113782,0.9791283664479103,0.8550137239101214,0.9795408611902713,0.5859303634213505,0.8291973818649605,0.127274787453436,0.6618456017430683,0.05174219527527958,0.9211898737114943,0.5389848740696869,0.6200323705890077,0.08174276399849864,0.7477135024422272,0.1612401123054314,0.9537485139897253,0.7908389770993975,0.8638843773363398,0.3719680756792481,0.8191786844489674,0.2333125167745078,0.7820669270156214,0.24297360674724608,0.7966869793814723,0.25622924229493127,0.644954145851403,0.15621260840784942,0.8772547780761333,0.5339965674184046,0.9807786054505657,0.9482467250146069,0.6714430203946077,0.07409231258748941,0.770895415380796,0.1849498342803395,0.8289099000062983,0.3727544768914902
8,3.5740873698421045,0.6146679585600358,0.9411681398241317,0.5488351102316256,0.813339175061133,0.3167080949907724,0.8478094378065257,0.03405419102307905,0.9584679541968255,0.7249239904971978,0.984957400532073,0.8968554623901338,0.894270672822153,0.41424885895350894,0.988103857925514,0.5712871587974984,0.7279880442235549,0.06399696450563885,0.8031948061814541,0.07752974539370044,0.8552077186265462,0.1700832493540739,0.9706986010677362,0.7160270443859775,0.6275140955518101,0.08487345851978108,0.9221919010439205,0.6890636889329297,0.6669786223595776,0.06667417800949071,0.7547560730209137,0.16502306358888713,0.9705075197743548,0.8619062225060407,0.9125702877676279,0.4887314700751537,0.8739783382765818,0.28799785395825417,0.9213795372695024,0.2025807667125492,0.8011527855323266,0.26549964427074524,0.8662777394395043,0.3520380058930495,0.9694062855525192,0.5450595988379642,0.6325581949665743,0.20795695341852402,0.941090158980592,0.7705792717374386,0.9840930039893158,0.95972535807747,0.5671499402512491,0.042421588862936704,0.730405334904763,0.1899058842139228,0.8267823296451764,0.0901252424592643,0.8483570698783555,0.38588257573562884,0.577625400611165,0.9077062847196805,0.44565299338752207,0.8003324132713109,0.24100936578907095,0.9463315876843932,0.5975650742537038,0.9804451024097316,0.8631187794658953,0.9871733015362942,0.5847991093111898,0.8045129847455428,0.09646185032127719,0.6010874239899746,0.04805543059215333,0.9053544933940052,0.5836152375983202,0.6479898263863119,0.06122342747992513,0.73236560104479,0.13399426151357638,0.9516005215188441,0.7754349595607456,0.8673135538937179,0.33042555991734335,0.8243978675012004,0.19415940393510442,0.775859040594423,0.20418729387338933,0.8553139913642904,0.27042292859666367,0.6154716161366547,0.1619421671147792,0.899536549366567,0.6108435495617782,0.9802059569318988,0.946490204976451,0.580013737300545,0.03905190043832192,0.7142409546760033,0.15412274499338494,0.818862640423309,0.3671288121340298
9,3.5092245133120787,0.5948920523713697,0.9215611004788951,0.4270462435510455,0.8015104957350178,0.1867990925140966,0.8542658187387367,0.03884141694092592,0.9648349707870196,0.7280770097156243,0.986637149393058,0.8951406260627185,0.8005184883041375,0.25218095838536403,0.9739381382948262,0.5024568122872752,0.5612197121939613,0.06502298679142735,0.7816876481669172,0.10358256601603331,0.864241171597758,0.2507337215566819,0.961655414948308,0.6119666205613354,0.6534662872269074,0.11126139991775609,0.9294618564019788,0.6001471134388109,0.650972367258324,0.061242158295852535,0.786338409400448,0.24819436836154815,0.9788853607379866,0.90276340372102,0.8876303175522698,0.495454106591123,0.7871185147204554,0.24026857485263983,0.8978950200108423,0.19171697727084602,0.7987525248241363,0.29545348153999224,0.7453967582644054,0.3210382831493311,0.9371973374518009,0.4485022570802305,0.6414193704626716,0.221097815843442,0.8967996669146094,0.6535711125671991,0.9659878363822945,0.9336811870803725,0.6414962802898131,0.09367619327756971,0.7143689647859264,0.17587423203793,0.8342063300344622,0.1103641673421761,0.8292665468342131,0.36307696024108455,0.544011328911083,0.8808370950556736,0.3258012857176807,0.7929933423938426,0.15694330019747207,0.9554094657860991,0.609462928381126,0.9818379474627652,0.8598111219892831,0.9676445944266174,0.4806196155061171,0.8329002248290894,0.1655740796797294,0.6295914327622791,0.05384775556141712,0.9078459067832572,0.48434183369372796,0.6268873328423509,0.055321338613599495,0.7511165292202373,0.16060092156497108,0.9596415177118274,0.8182860983703194,0.829642387573102,0.3233048308280059,0.7148439617139821,0.1712415288930605,0.7649263105270497,0.18851608114811103,0.7177447976724547,0.21357448578447466,0.6231670050408876,0.1644611856056099,0.855803096505056,0.48410311663825484,0.9622997078953047,0.9227982329849801,0.6435731214726732,0.08469578961871435,0.6951143693633923,0.14222524691728594,0.8046910073518971,0.343276538884697
10,3.459589702973872,0.5806563812079203,0.9209782527451625,0.4753427217459783,0.8031817787387789,0.2459706463750819,0.8087126359694793,0.03217414460912895,0.9564451195573525,0.7004641236094934,0.9870984021353519,0.9250263921696007,0.8052304408122459,0.347044381403583,0.9845162226308725,0.5494000028033253,0.7390693492977803,0.10727103295960289,0.7778891115152534,0.10788113495515919,0.8561687701605581,0.27003036396503166,0.9544496073668154,0.6456466730769325,0.6771977029726794,0.1445492839763754,0.8982280242696465,0.5411801163565385,0.6454162881608633,0.0661953476022955,0.7841142706555901,0.25781911732781065,0.9777644299994239,0.9034114701140337,0.9215638714297201,0.5839910586056787,0.8591584145284684,0.31278809324486406,0.8922969218091753,0.24132838353622546,0.811050958337955,0.3328183051678006,0.8209303962980434,0.29927812251993435,0.9457373116369739,0.4842240914042318,0.6291225354398161,0.2279370034575373,0.922627278048448,0.712839127358791,0.9850569102704027,0.9636403823951203,0.6114192239299798,0.06790562898353306,0.6857097872491642,0.17800399892031415,0.8441965520711697,0.12350558841031073,0.8394760917156132,0.38741666918051115,0.5371543564135053,0.8819506462028971,0.3571155672085648,0.7903165223523697,0.19029615677431594,0.945431882864627,0.5684870981274144,0.981160944384539,0.8942645956035155,0.9804890175911902,0.5236026132637464,0.808264391027729,0.17903010972873057,0.6312456387690293,0.06072570904378309,0.8703312346696518,0.4065136513477092,0.61667066303568,0.05045292491751863,0.7444505728095654,0.17704860166700806,0.9544307873023962,0.8068431918104592,0.8553215497530049,0.3645603464497441,0.7831589726717,0.21197981366279303,0.7641100508178718,0.2435299718823142,0.7883753194903865,0.2277261931032246,0.6019971347213945,0.15540338306093585,0.8673600207535507,0.5161430704749878,0.979233992688391,0.9438483645481701,0.6185606673265748,0.06157656455114213,0.6635763860650862,0.13468615500594022,0.8063218197648817,0.3536917041116009
11,3.38243743911956,0.5829668828103649,0.9312997774748341,0.5402927422014782,0.7913827336668887,0.19837769790217638,0.830898432980553,0.03493806711039387,0.9509273544960192,0.5530692502993347,0.9845893851823831,0.9054005486730543,0.8875056198487656,0.43626304483634537,0.9859751204209805,0.5883184829216939,0.7801809608342529,0.10957953322816481,0.7923625110905504,0.1197249997308578,0.8701497139174468,0.27060874883810854,0.9561389540138976,0.6385138828823175,0.7153457257740736,0.14212997940078265,0.9049812294179,0.5082290136909947,0.6402629114992519,0.08968880357796907,0.7676193903253996,0.25256855442378484,0.9806458502652579,0.8973985406026075,0.9051034018326571,0.5315925016170661,0.850551207388171,0.2965514693272916,0.9128186378859109,0.21084257063630146,0.7834414413238794,0.21510795168513558,0.8469712844712844,0.31709768693744944,0.9647512993333001,0.5804561074359247,0.6132423661793311,0.2178972508005769,0.9269577756453722,0.7366172456900808,0.9810297227877485,0.9591895971944621,0.6128279382140167,0.06525896649107607,0.7018165999744269,0.20790238737312888,0.8558137488370006,0.12432715656169371,0.8473425391100556,0.38385509935965173,0.5225460237012745,0.8806633644844609,0.3906251549316028,0.7782866530291993,0.15708680588613638,0.9311416090816552,0.40563252924863497,0.9799869873468502,0.8733491068078046,0.9831028354917568,0.5550002212213461,0.8199897180745335,0.15274214692281193,0.6648202104783469,0.051011377267047575,0.875531783789707,0.3636227971211909,0.6080205460943104,0.06402983018967051,0.7263535729104965,0.17184543016511591,0.9528416585289913,0.7657176487103708,0.8303053379103282,0.2849423966642335,0.7496580694649816,0.18511977501607474,0.7268353073042997,0.12367962894383244,0.8049337592269945,0.2406403952589679,0.5762678938587098,0.14016142881480476,0.8723665010078652,0.5248894059550234,0.9747541387921201,0.938574938545323,0.6208647382688413,0.056020861744249785,0.6626663427913486,0.14771394128125362,0.8009695513967898,0.32962029103477475
12,3.3302849938311443,0.6455740230056396,0.9018288892117692,0.4671534375084084,0.794918744971229,0.24175086239843574,0.8502601240516208,0.0491270457986554,0.962027161778701,0.772406878225886,0.9849074173233304,0.9117175070928487,0.7741894263690586,0.36991774887783985,0.9831644788332685,0.5870132377370135,0.6381797773721699,0.11381902505381722,0.7879255509262536,0.14773601364611658,0.8551318931625329,0.27301097991660456,0.9548048574233094,0.642237041277022,0.7017681983592592,0.18502293537912834,0.9270163757324754,0.6857617987575343,0.665560097125395,0.08074630997741872,0.767995733497017,0.2801297704718619,0.9863888884444815,0.9391483578747029,0.9219532801516882,0.6034755066838179,0.8924118424535674,0.309837047732469,0.9108161194741741,0.23822970465295926,0.8125315282607865,0.36192548107019534,0.8181742262624615,0.37144970409700934,0.9362799030898783,0.49392259835820274,0.6279296878339091,0.23546163762968522,0.9352370057608234,0.7563936696770538,0.9807013441871735,0.9606815938784781,0.601211520642253,0.06659385998700812,0.6890810945846185,0.18425839277124412,0.849555749636743,0.14050483666664873,0.839712532747141,0.4096226065427881,0.566147424908698,0.8472630114925701,0.3279967625103796,0.7773491938948981,0.16766525851930983,0.933171044008861,0.6247038123202886,0.9803515212243752,0.8788480465312611,0.9781391135808039,0.5425969774055399,0.7986661666552227,0.1442162557020318,0.6400549693111748,0.05337478967817503,0.8927301228572398,0.5127024044485238,0.6175936339744651,0.06212759556683491,0.7152594762252851,0.15526244411657636,0.9586600963783807,0.8037306718343751,0.8416901168244223,0.3131095843819115,0.788482886894799,0.20542844960292875,0.7589729949718067,0.21980026618312354,0.7594044502801415,0.24116547165365784,0.5803570938257607,0.14265728526903426,0.8754553176266056,0.5485112261425942,0.9737263451716661,0.9430726472112211,0.6098406084955608,0.05825314765394517,0.6566843157313518,0.13398300923087972,0.7991926239712697,0.3539603052981296
13,3.269336831261364,0.6230652654592432,0.9295192677436506,0.4663088270577794,0.7774927680350006,0.17966429085915264,0.7847380326267921,0.0329685587120762,0.9408537902751043,0.6249218044558925,0.9810730329065714,0.8928335518383483,0.8200660664018311,0.26869651288261787,0.9859132459896791,0.5723867808572314,0.8217360633731655,0.20882682426343402,0.780518685033794,0.18435774378851694,0.8312255893522117,0.2799379524225325,0.9328772474012768,0.5503746195093671,0.6991652563615967,0.17090988750903266,0.853867845252143,0.4534258073148679,0.6436490109218839,0.07370368059750718,0.7673828178373687,0.25295071334805724,0.9872701611225946,0.9431749419566068,0.89770700390426,0.5644111552071744,0.8540845594965458,0.32983889840833047,0.8540929517662278,0.17035230773446441,0.8042683625903787,0.29715847926822925,0.8151666534019475,0.33037967759834036,0.9565196698990117,0.5068977981009042,0.6047660159351558,0.2352449226637106,0.9312845784224522,0.7948198439723692,0.9683334833026376,0.9434228447076655,0.6567646081322998,0.07239328731279045,0.746906038118351,0.22014826753080013,0.8345620431440584,0.1280410223634607,0.8379216017409996,0.3838768215086164,0.5396884549452188,0.8737539955591341,0.34144542209269607,0.7568528274393319,0.13296778522725078,0.9199321255431941,0.4398943917721932,0.9759709480726116,0.8672566680667964,0.9798085732306375,0.5251309747583495,0.7650122273925283,0.13238673020339947,0.6180794918898904,0.04522302913910917,0.8317350748378777,0.3293151155731656,0.5822899955659334,0.03686526590027013,0.7162520504818696,0.1542096056044226,0.9542799926407111,0.7965127624732169,0.8142705860655494,0.30638841655454396,0.7348383696752091,0.21141750213585422,0.7371181070646347,0.18701796180713257,0.7700230341696899,0.20298950197999174,0.5540646900443682,0.1368029878242879,0.8675995652633263,0.539722175412639,0.9621363463534442,0.9251157238285129,0.6464340167478613,0.05752947028753357,0.6993498773696758,0.14432273224429282,0.787990094770374,0.3256257111442829
14,3.213445405617006,0.6996596357854463,0.9456441384004862,0.5919713072689542,0.8368246677437908,0.2835173690903881,0.8655730278910245,0.04937357676342312,0.953762572524839,0.6988219082898932,0.983480088883949,0.8990194673449707,0.8393851744513806,0.40124517367230794,0.9848874946709342,0.6121499224050091,0.8073503267250848,0.186779321411079,0.8036222101576985,0.20284562041039092,0.8695322756963644,0.33396560558277055,0.947589295802497,0.6179898340171877,0.7118020376684278,0.247778879570804,0.9380571107421191,0.7079260014610093,0.7150829239772921,0.14966594723329776,0.8139032750178344,0.3454757091492545,0.9904772022967688,0.9533179534055971,0.9294999011375015,0.615039536852899,0.8695868083882456,0.3201845697867422,0.9259802690266907,0.26989087203246637,0.8267203874364191,0.3902647491377342,0.8076587819234878,0.39506026704240493,0.9491021854026119,0.5626021194620955,0.6225804791632261,0.2685582229564325,0.9401769217060576,0.801591115300544,0.9799821235786631,0.9578368975268707,0.678025818361401,0.11916806572711941,0.7728283960316534,0.25251442794389606,0.8753597220903451,0.16022610652106573,0.8637312720320284,0.44267073383452177,0.5914138779160766,0.892532838819348,0.398763234654242,0.8092209363148948,0.19364722543951066,0.9243201695161726,0.4906183106098917,0.978019781007044,0.856888717089883,0.973346653714591,0.5578032661225405,0.7945117288482542,0.14562171781726171,0.6317605844405519,0.051290688054452506,0.9019074371954219,0.5062328141550755,0.6135425527663436,0.06414518262340575,0.7370221956697494,0.16802671740965455,0.9544555895215047,0.7732348715907558,0.8407602412242865,0.32065865707012275,0.7380762685224328,0.19912656455065222,0.7596249141137354,0.19489491315017188,0.7658174044053901,0.26839436456184756,0.5689070028119786,0.13970839593750384,0.8743482349544603,0.5477221876994607,0.9732781365929852,0.9386069195639081,0.6729275977407855,0.08765089379873857,0.7343683789255614,0.17013831472254243,0.8069374323552747,0.35365869783108106
15,3.1414110105954793,0.6355866934982982,0.8996950756885997,0.49498814059334245,0.7827696281990543,0.14332738080880508,0.8365612541646323,0.03971617194419007,0.9063281180018573,0.5210578589366623,0.9772187595553942,0.9164291440639699,0.8523117544451418,0.3556099876230012,0.978043383368224,0.6257311724734057,0.7835689283259193,0.09320845245355,0.7955656051228785,0.19616136357734182,0.8679009978953041,0.27858929818423805,0.9665279327439128,0.7172579482122717,0.7484924918435696,0.22171455144136343,0.9073231755582499,0.4586896529410196,0.713571299810108,0.12379852026527322,0.7316264136398147,0.22543078901628893,0.9893580534099564,0.949102867516101,0.8984032897729014,0.5814300211399619,0.9211902830472062,0.41381163572979884,0.8786350708298178,0.2738803937697639,0.8368065996362948,0.3512334142419136,0.7736147184676596,0.3578394590745687,0.9455946941070555,0.5808472602396926,0.6757950954180008,0.27919985595109775,0.9433937307786453,0.80219314112043,0.9892074046018533,0.973251101893252,0.5851217822595931,0.047734935078309476,0.748298125212495,0.20564187157056799,0.8436860488575866,0.14244389141635233,0.8491646326700619,0.4060828671884477,0.5350674517403294,0.8348660013501533,0.3552916546452452,0.7615394225559977,0.10981967900477206,0.8744018492673373,0.3389736251648476,0.9689511150279375,0.8759264319538215,0.9638929428067639,0.5590665758347533,0.7983882847083941,0.10340697273072467,0.6586163683228664,0.05897162938280195,0.883859654173637,0.32975579712443454,0.6084645474492699,0.04335061164386288,0.66728635652608,0.10934226252992375,0.9502022566127458,0.7689721458038346,0.803125960564073,0.27811926917127316,0.7771202721926468,0.22623860459621306,0.7523095606852143,0.16456951882323673,0.7431753206126359,0.20692072991183472,0.6055763102512045,0.1568715406640771,0.8724935432817178,0.533887003867175,0.981677366895829,0.9458280659666646,0.5878874533373877,0.04034788121633447,0.6859667464227472,0.11891148537285562,0.7889900666522319,0.3162285742704343
16,3.069088379707885,0.7088519539887208,0.9361433564939651,0.5405762163390486,0.8102799290404129,0.38736450980457504,0.866916887767208,0.060901220325403675,0.9472472883213274,0.7088995969893406,0.9622164954785245,0.851449792889362,0.7517088685793962,0.32954057626318645,0.9738186399587674,0.5977556722334487,0.8365602867700703,0.19098996008297092,0.8004450156593517,0.23587131542812634,0.8801116826980908,0.3224737391998779,0.9301620273925202,0.6171608945774198,0.7681704541406265,0.30457899216081846,0.9351925195115001,0.7850724662283538,0.725002859176049,0.14275229173977003,0.7733297890616924,0.2882198797513874,0.9901836247224232,0.9462750074755488,0.913802298076611,0.5843957084277789,0.9230146988893125,0.3872134647116658,0.9152271815547033,0.28375430751971875,0.8515484500585824,0.4030102664125188,0.8373633410398116,0.41866655438529987,0.9181758915876473,0.5048380213373285,0.7144841825466021,0.3222061839374707,0.9321594826684322,0.7845511286084632,0.9760286702171032,0.9517796659973222,0.6451250434607166,0.07154547333131947,0.7526884225556489,0.2632276320112493,0.86457046871818,0.1819455905901456,0.8618456377194743,0.4452505760271043,0.5887307147648506,0.8701066295781178,0.3469142080434552,0.7591639578546209,0.205140357921171,0.9051204233371797,0.5000385751830558,0.9613762049118545,0.8275417682278275,0.9549746559796697,0.5407238306472165,0.7938937569580524,0.11639311389342921,0.6759261474487689,0.06155291214087789,0.8807039471162018,0.5543714359138607,0.6152770482818467,0.05325068706698044,0.6824096267213938,0.11579543255008942,0.9466828712549005,0.7320003844104029,0.7935813001600363,0.24786496592565177,0.7851216061202538,0.20258565520067512,0.7718732061232667,0.18513624440027407,0.7685248311716003,0.24790732611626481,0.6287505834734477,0.1606704211753054,0.862936920294441,0.537241705817987,0.9701909663347412,0.9272815169332604,0.6500089497326942,0.05232693558665192,0.684448099336983,0.14483474110103797,0.7980535866095035,0.3379786109127737
17,3.005663447680851,0.6986907157586147,0.9235173048427752,0.5486155968496594,0.7580005054022008,0.18499253672445226,0.8347947539852025,0.058644571496136055,0.9660445964028357,0.7765707523286927,0.9826567657080544,0.9087901373291885,0.7455766446367028,0.36808614930018707,0.9739729569793264,0.5901650972135893,0.7409645567153132,0.1436717193455768,0.7900925402682254,0.28364188171622884,0.8986495275574529,0.438832507634678,0.926139368891588,0.6712341117062043,0.7627746581707728,0.3437369471911085,0.9139526713547528,0.5729136918877281,0.7049744715219318,0.18033312541249696,0.7993437619258467,0.4089006374870292,0.9923416651734575,0.9605900396373377,0.9254470746152089,0.6392645339974669,0.8819101974846826,0.3732728405475522,0.9138245069407935,0.3419685910996919,0.820784743770547,0.3768795938845725,0.7744548847490025,0.39881252861472527,0.903366911032384,0.5146829830247907,0.6446657846494928,0.3134049058996906,0.9436549399950784,0.8137021819966013,0.9667530958912042,0.9431217432442953,0.5917128590286508,0.07206412706436743,0.7239359410019459,0.2734317711450391,0.8994603714425331,0.28694082373053564,0.8465631450049272,0.45668807598248656,0.5708429604233435,0.8488591204483159,0.35380646646508274,0.7256038782715912,0.10944385958491509,0.9339923740384924,0.5557159441857589,0.974950967245395,0.8614373441887159,0.9572434176906327,0.5001835087968703,0.8094073162472615,0.1771151677830213,0.6434916905199299,0.04828163170791943,0.8767099227480445,0.3913644776348802,0.5665326455772565,0.0484287777303186,0.6898728369901321,0.15052954403019234,0.947375617401888,0.7516133030026426,0.8111945996220211,0.30896379420292425,0.6901360134310952,0.19458101416269316,0.7124135327862572,0.1481991222385668,0.7216242736941927,0.22325238593071942,0.5512177837861411,0.1492169304349233,0.8575207038633612,0.5204342263925725,0.9620226805037457,0.9246990285527862,0.5898591980608194,0.04549223791145299,0.6448438014972457,0.13633376882001422,0.775743618721191,0.3299546266878485
18,2.945463916997205,0.6945417505155151,0.8882111387746247,0.5077865732803528,0.7744282050001784,0.20876551569682833,0.8499908814410853,0.08490712093606723,0.9113035534444505,0.5909839050064926,0.9359077702021009,0.839695770418898,0.7744235221383284,0.3365220862544987,0.9712541471267586,0.546386159565879,0.8860859801006294,0.18871690484426878,0.786681972469042,0.3040501620949086,0.8616714611112928,0.3873108735709092,0.9562682722727529,0.7068632965009645,0.7662281438667723,0.36613911042756386,0.9325891558111525,0.6213184998801117,0.7392910221759605,0.21279125127736534,0.8130892455115819,0.39739154846636426,0.9961639031632568,0.9819285030468214,0.9074538562747012,0.5899334653443206,0.8968091194113401,0.369269531684826,0.858293292526267,0.2910749472063336,0.8213826738575025,0.4083910638374296,0.7887471343353697,0.3846731122721547,0.9297726959487445,0.46321803380423987,0.6846154156237793,0.331605710750686,0.9405796512504352,0.7911576850552753,0.9775143790299884,0.9575996160347362,0.6848281303876612,0.08623700122740709,0.7745204067012637,0.28263882283383834,0.8681552479572366,0.22371405006944328,0.8562950134969377,0.4450382257638923,0.5588432585525825,0.8053057771921692,0.3269303081091657,0.7323581609968427,0.11711310204292849,0.8568069921644095,0.3951727410191991,0.9342546734606247,0.7998523201646699,0.959214542541584,0.4781377951106357,0.7635683856614089,0.13230311575281672,0.6410805884279632,0.057171509250324826,0.8951172101927987,0.4203994694572399,0.6010313010845384,0.046942888526594354,0.717506637835031,0.16353484794216075,0.9490500502412997,0.7700016588793201,0.7898725064996104,0.269969996797735,0.7222870482133213,0.22115524115492913,0.711652960454007,0.16804570044337933,0.7120146621888914,0.21057093956418366,0.5784045372833476,0.14532653546519436,0.8655115530538787,0.508940220408758,0.9710444476986156,0.9345356269068669,0.6656198714257678,0.05741981089791883,0.6965581113645994,0.14638815965855503,0.7784130008990353,0.3184955993776288
19,2.8862439570333707,0.6569774663983503,0.9186449126315752,0.6447186621303894,0.773737946036817,0.25655634781311887,0.8468384583556395,0.07315091698750205,0.9277522173173881,0.5874172601388001,0.9719768789870292,0.9095565340798182,0.7882865732945726,0.3594745622408208,0.9781661268667639,0.6069817887903192,0.8320278376971302,0.24341260628744302,0.8342027765780402,0.3179026208323746,0.8949750835271417,0.4554815840676022,0.9712805332325859,0.7809489658425159,0.7926561555640557,0.39942455970079394,0.8873437708216165,0.5706719966602284,0.7330354429872987,0.18050205689812937,0.8504694089672238,0.4758617538271296,0.9916378057345628,0.9550730974708042,0.89148839099364,0.5784087545311934,0.9070517810571825,0.3931953973488057,0.8842105295507713,0.25042165514919235,0.8569621879913911,0.4260829547691691,0.8950714612479318,0.5395808616401107,0.9362228241902575,0.5031803394605301,0.6882417601659399,0.36287101272159533,0.9472068895926619,0.8418454765195287,0.9800818249568005,0.9625178129743879,0.656375923757383,0.11757210380202762,0.7564715525638843,0.35456910918666373,0.8984409844066054,0.19809818075697316,0.867530644252639,0.4766242490224274,0.5174778266378475,0.8305326598833662,0.41113164963348814,0.7158144417044966,0.12721511193004054,0.8939586256650053,0.40711686344000175,0.967210342700792,0.8771836558303373,0.9642649313340484,0.4998815640398222,0.7862838410034033,0.13255425639450114,0.6142114182367098,0.050007243438315516,0.8430116526436684,0.34385431142062456,0.5756743396951722,0.04291962400073241,0.713412980556997,0.14939501548038867,0.9354485805063756,0.744810508856963,0.7793323298847223,0.2597656641693015,0.7363012584956588,0.2292595323790107,0.6982764756840859,0.14693196704486594,0.8189429392273874,0.3037363346986708,0.5561986280903903,0.15093545950448578,0.8526300208895365,0.5406088591175523,0.9728638399050467,0.9430168483664159,0.6155061127752581,0.06341675514186991,0.6519782967867859,0.15249641362795804,0.7760926857834453,0.32881188192576727
20,2.826856101318305,0.7268142406399841,0.90069608721703,0.5381134911907854,0.7825374709739944,0.2821673597869414,0.8556422308897556,0.10808840231696075,0.9221910198141225,0.6117728984207089,0.9479864950825944,0.853122567745302,0.7958322273721516,0.3325365215015993,0.9838429595881825,0.6208606748446506,0.8632603063481152,0.2400443192071477,0.7973746875714549,0.33850910457689887,0.909636975368283,0.4733009347432641,0.9602138473815038,0.7585182143360417,0.7778982000320255,0.421180346950789,0.9195831294142817,0.7152550924389113,0.7626235433945894,0.24368639554530044,0.790569233976774,0.4219607943527525,0.9980052879600417,0.990062372469188,0.9143854757367497,0.6069514000869375,0.9135952520826112,0.3872562280153333,0.8890844716928636,0.38352463897624284,0.8284176704600004,0.39184744809054367,0.8499099454981809,0.5010977657046986,0.9416101812317067,0.5485109036059075,0.6818108063444122,0.34384321034158805,0.9530401140597287,0.8457729704322846,0.9820738820036224,0.9632667917513091,0.6139161035044374,0.09913065472860531,0.7410645539603397,0.2985603451727983,0.9073842107616368,0.31429349380361127,0.8637209417757568,0.48690126218346796,0.5616009540135649,0.8053845090240668,0.32474108951353303,0.7287225148984662,0.1285011173988151,0.8728301986564861,0.40819981239153935,0.9476585013746699,0.8305128046885722,0.9714471182398681,0.5435477662320096,0.7971224106655023,0.14748078985313395,0.6249287250252774,0.04629926299186286,0.8636748211621563,0.43778829930016455,0.5934429575414337,0.04822167824219026,0.6738992986137093,0.1418075521526935,0.9439971199705629,0.746772727758894,0.7980704436789678,0.2670509967088032,0.7396810306184846,0.2117544966055948,0.7126951099365122,0.14937716897521516,0.775677417816271,0.2756554289963024,0.5638156821511233,0.13913704978799551,0.8565476719725601,0.5308028895908858,0.9756719275056264,0.9318541927398926,0.5939648609772245,0.05938186639942809,0.6281070629074301,0.12471048299781565,0.77336696913682,0.32467987366626705
21,2.7752192184491555,0.7295470919977144,0.9057916387269953,0.4996227148024685,0.7987940224310659,0.3313991102053213,0.8212011397218153,0.12940803337644896,0.9027465571355049,0.6031083635466561,0.909020816866055,0.8025888954156857,0.7505377320286986,0.35259287821315927,0.9813534490986718,0.6323126740929595,0.806868645366105,0.200158091319966,0.7934662937298216,0.32854888878683486,0.860654965225251,0.42134301595932083,0.9408240088836789,0.6651820420393815,0.8114149901304326,0.4419150696872322,0.8788698702564126,0.6247959004831057,0.7692496768596903,0.23690971675488065,0.8172635330948276,0.44804428164752136,0.9983995171601723,0.9926701643390706,0.8326440014238694,0.5163632032836181,0.8760271396993025,0.4103482179531015,0.8855895914936198,0.33042719989775965,0.8414956769231772,0.40714227588588275,0.844696708667297,0.48092420093262184,0.9406657575142371,0.555097172909929,0.6994135922891991,0.37537093539770494,0.9348316520215645,0.8017492107107399,0.9690050060948253,0.9445424951575626,0.6203895278303141,0.0893992712064216,0.7364481524512849,0.30534975386380075,0.8146759977306404,0.19834644763614553,0.847940702173376,0.46877357948233217,0.5649549079525974,0.8239299221628481,0.2912072246788039,0.7230576533281026,0.12377981350406007,0.8413242884418902,0.42706590978059406,0.9163347419555612,0.7880834558025694,0.9681052064582366,0.5474474282911302,0.7477301417109898,0.10283927591538658,0.6465253983850986,0.05030573898705474,0.8309284115427433,0.372260059537068,0.5787258528917535,0.04542338408181602,0.6826984868148961,0.13337072054805332,0.9450176552173113,0.7642640731523307,0.7110060068099655,0.22446442634658748,0.6985970805349228,0.2349607255760542,0.7288364939060006,0.1541090035009528,0.7683210727582367,0.26968971579597323,0.5487292796263185,0.14924180579667512,0.8420523002026191,0.5030445853670515,0.9632640451747491,0.9035152366230689,0.5975684762379205,0.05233111866806159,0.6167718904759254,0.12041729805321516,0.7589762202318046,0.31289105000032535
22,2.7319579433972505,0.7457206032148269,0.8248654313043775,0.42321886494909866,0.8811648301052006,0.48819533874817167,0.8375923866896494,0.09062673908623646,0.8941120531315453,0.6119331260203588,0.9078759703271768,0.7937224451472156,0.6444181688947185,0.24191472089430754,0.954340563894704,0.5566450125851288,0.7562245013524654,0.19471015464484293,0.8203478208748763,0.3372285794331901,0.8799436431665899,0.4690447654112057,0.9286871151347381,0.654596408445483,0.8452631438809484,0.48296372571404345,0.8775927715225886,0.6020473016840692,0.8023106921826246,0.26538980978442456,0.8337651688169578,0.46787289208951655,0.9981762277378522,0.9923201071749872,0.9029080911617862,0.5975362487787439,0.9284313598857936,0.4629469769518282,0.8303915667217253,0.30464068717373266,0.8456596793391787,0.44971506236857894,0.8235500367853309,0.46870136632618875,0.8839360011252799,0.432294840634857,0.7514354959076416,0.4132796599463702,0.9339295108437901,0.7916337053859591,0.9582382168423569,0.9341148105345121,0.6409366524261684,0.09750185820576636,0.728586320176145,0.31566683180570126,0.8975136261898379,0.3454950252625032,0.8504356088007876,0.4744984666138222,0.5621226801818588,0.7264743918209989,0.21931731347618613,0.8228209241719441,0.2148633570750407,0.8269246676625615,0.38294458607042625,0.9155174211924709,0.7799266661940595,0.9359752728913361,0.45993259360360916,0.7645409724753089,0.11067576751893059,0.6675057319035615,0.05391510510229866,0.8329676352012043,0.3343432052046157,0.6272251211756175,0.05578001348923812,0.693020307544244,0.13904496770868113,0.9422200993504013,0.768861417950609,0.786849270516657,0.27551445073019615,0.7481181864960871,0.23741338028996323,0.7105356539477534,0.1966946627783059,0.7401680428250386,0.24416742448028017,0.5986888200834387,0.16444471004158812,0.8441664635594222,0.4854960722318763,0.9550437193636896,0.912119740675813,0.6115859141990205,0.05234211048922918,0.6069824379678893,0.10937337194605178,0.7678665527174323,0.3098585458528499
23,2.6990385775785146,0.7685523341035005,0.9232128691254917,0.6174606969232258,0.8178844153552319,0.49160914557745483,0.8568526460489186,0.11943436282058849,0.8795575982269371,0.587775103700001,0.8851529715755494,0.7553975157809966,0.7105569182041288,0.33406652430798794,0.9691827153737982,0.5914493478211171,0.9009425555581894,0.32123997106691005,0.790146898456807,0.3491838780610156,0.875238681173983,0.4706356585665341,0.952501580066098,0.7143868355657772,0.8200759623244228,0.46906484982332014,0.90619397537674,0.7712660821077985,0.8117724563679053,0.33505484070095276,0.8244222611089889,0.4842827032952904,0.9986267302560428,0.9937859956594445,0.8844346501345236,0.583965130419746,0.875222742187849,0.3709575694489259,0.905680747672436,0.3677501957128295,0.8542887289613524,0.47271279187600757,0.8264627547715784,0.48044513246184595,0.9106183228582393,0.48780442435425725,0.7675349547354336,0.4328758936937477,0.9337836731043113,0.8105295533839038,0.96930829204291,0.9480668541025549,0.6535396372518785,0.10431113752758198,0.7526133623409034,0.347848227646892,0.8453383413863158,0.2838890661176836,0.8607552657873915,0.5034731960187283,0.5829171946038608,0.8257614132689164,0.3395651607881104,0.7310610837116329,0.17003957775414372,0.7818763491323061,0.36939152802532726,0.8926650580078934,0.7382435900015896,0.9530076745652843,0.5099823669461717,0.7661061491430848,0.11666396925110856,0.605959755628658,0.0414373534709119,0.8324876839439818,0.45274301991204025,0.5724477474751511,0.04940061640030346,0.6539388962349976,0.13355275822935045,0.9458940651580124,0.7666906031332084,0.7550948814205342,0.23810296587184912,0.6883240207077596,0.18864566672842425,0.7230594519273486,0.18817102597719057,0.7397279106240549,0.25966837594698494,0.6022604044016107,0.14073657805286216,0.8480523148472616,0.4951813373255715,0.9632495619714114,0.9221059177717587,0.630490984492162,0.05838280163429504,0.6314558552234526,0.12727426638946912,0.7571460630942757,0.3152989739805335
24,2.655432816857963,0.766018235571787,0.8632077939840479,0.4696101245735172,0.8389392830022364,0.44275245691939,0.8251576138005957,0.11839533653759687,0.8794489916395658,0.5681764670303451,0.8560451687211312,0.7204991750413182,0.6791915791763288,0.2545373891008172,0.9691479730460622,0.6097835057337192,0.8580491663528035,0.2594693922799151,0.8259905893426625,0.36652107245277565,0.8795455836287576,0.48809605504636866,0.937935930526524,0.638409455315285,0.8305949130895007,0.4576899874484457,0.8394056685708964,0.5710839708828482,0.7837358736461224,0.32955036841437857,0.8386744468652593,0.487446265598271,0.9994769675163027,0.9971375971674197,0.8522254215414702,0.5348328014067959,0.8925956141287646,0.4030270603830666,0.8748368625654446,0.3561217540373366,0.8295219518719817,0.38996519237559235,0.8272319467172409,0.49398797782953763,0.9038884867501485,0.4766150892637719,0.740627483271466,0.42289145565912634,0.9408180631375005,0.8194520914515785,0.9802893611813277,0.9596344857269599,0.6361492642888413,0.1024072505520934,0.7359281870913926,0.3319704816327191,0.8397282171734781,0.2923084568787869,0.8485138715224234,0.4772275970264207,0.5691287172989491,0.7721268168102221,0.2800107356553231,0.7552750611817893,0.17079801913202713,0.8096293344563905,0.37177169879047156,0.8680749246671456,0.7125983926899859,0.9553749579901569,0.5140593244920587,0.7504705213323544,0.125556136347244,0.6371182409820424,0.05153813245100106,0.7970696680646822,0.3222440429996519,0.5621325957177954,0.054127124299899756,0.6806177595943179,0.15028471211870675,0.9441888329865975,0.7655521124062388,0.7237605129089896,0.23850128948707439,0.710057571856423,0.20867504712485518,0.6991063432109342,0.13041032995847832,0.7343975765023414,0.2509673437881682,0.5731627652684301,0.14870798674854976,0.8525348307131627,0.5128894024204366,0.9715101260391938,0.924753388082534,0.598712748085512,0.048790053380232526,0.6125598705640138,0.11852571637283041,0.7503940529466249,0.30503804943728846
25,2.6301635020961083,0.7780676256490522,0.8751261118591529,0.523787981201659,0.8273400547506345,0.48970838073808126,0.8603539765741282,0.1628757613588811,0.8726313927692455,0.5295921588522632,0.9096909347244636,0.8027080029300349,0.6380996384505238,0.24132284985923813,0.9619121769949797,0.5754210425406,0.8976136733767561,0.3465599297983369,0.8125513211598946,0.37994790653601007,0.896176329524652,0.5312927154839695,0.9348401926444834,0.665286259117429,0.8227174260207727,0.46550713319848086,0.9176786119088619,0.7575858772451902,0.798335439433711,0.3401352595235641,0.8577180687337719,0.5363889506338134,0.9987234202114385,0.9939817713251985,0.8845256005151374,0.5801092188505386,0.8825856991846235,0.39197071167641845,0.8971457658844129,0.38739793570437664,0.8880593411735318,0.5347624346549497,0.8327549026078438,0.47846689988289265,0.8743046277134179,0.43603625042348976,0.7432429056977119,0.41751164948065667,0.9410735817495125,0.831028234878547,0.9700644531858317,0.948872119973683,0.6726982353810849,0.11769298326536962,0.7356878731565771,0.34460773915265874,0.8807740974500672,0.3479087525374026,0.8601580661727579,0.5056595325294191,0.5885071178355817,0.7708796330185687,0.3021540453625263,0.7248222925890639,0.14977463197783733,0.8094790059432643,0.30279648735517267,0.9147672841474229,0.7921756122790502,0.951975498478438,0.48636325576372924,0.7629784367130468,0.12784562821493606,0.5990891613619858,0.043896789786141546,0.8592441402982351,0.4585681783068139,0.5685493846543236,0.04609345901316819,0.6923324806863044,0.16134445974294648,0.9424071420484298,0.747384933775917,0.7510059274859646,0.2849854657775674,0.6863896025061514,0.2051731657864607,0.7335856222729411,0.18571358499127805,0.7376065084856087,0.2404220110732376,0.5717258054356306,0.1430675673604715,0.83383927086417,0.5250084895310619,0.962326201559947,0.9185717311755703,0.6262770621585894,0.056666288192624426,0.6064642017900175,0.11055729709729376,0.755287233124905,0.31442815412819025
26,2.60095969654072,0.7821172144791434,0.9140655036301677,0.6625442188417285,0.8263202616097988,0.48811808182805294,0.8570388411390157,0.14010345673375638,0.9078699136288659,0.6501456456885487,0.8999152983620414,0.8119196393924355,0.7492216891163085,0.39295435470626194,0.9623696558218852,0.6408731165524097,0.9209080349876343,0.4263817622763731,0.842170953203982,0.427967480394358,0.92658151955389,0.6074021727158503,0.9346129367691092,0.6790134506542277,0.8440835478324241,0.5509368598346901,0.9115321479226228,0.7545267575221573,0.8073696345045254,0.35205869448274374,0.8810052042316463,0.5828614293694395,0.9994629846796746,0.9971589229506683,0.9090848731334759,0.6503494317039049,0.9345706331748218,0.5422792645864891,0.9158209301077229,0.37984671878183834,0.8786484582610569,0.5133293038891104,0.8733279174455646,0.5903383455470952,0.9278661862968832,0.5873698179478705,0.7867770766378301,0.4930277909283732,0.9526371983197053,0.8688250534939459,0.969660306211872,0.9531973227011715,0.7061556549011827,0.15311470384265966,0.7677597748592427,0.4426591881610855,0.9077970765327459,0.37666978266038553,0.8826655076027033,0.5612847417209869,0.5855258254453306,0.8036825838355741,0.3543594529451355,0.7196088802331446,0.14649007733868305,0.8674404682091077,0.4243547300633736,0.9134667220436488,0.7947260470370501,0.9424327036844359,0.5150045725878293,0.7924034059464976,0.14994306700166823,0.6068529357314764,0.045744775107432405,0.8448678925902136,0.4394319348888711,0.5669420355220114,0.056582628057805374,0.6985609839730226,0.145379247603656,0.9414555116828711,0.7360259841021534,0.7808392875911482,0.2770054435073836,0.7503004844095617,0.28903990499138016,0.7369203750063329,0.17554685772377526,0.7625881316510814,0.27484541257293005,0.5820565965206408,0.14167429823545039,0.8496596689683164,0.5332120326704867,0.9641691972130592,0.9339556954757325,0.633836890582509,0.06912112489286593,0.6246406696086529,0.14186064952755273,0.7691362712501653,0.33221519681656075
27,2.577460214444941,0.7719311321457852,0.865897435293246,0.5836774757898189,0.8278642793082774,0.5148792500458722,0.8589234413637441,0.1495732915683866,0.8807848679537565,0.5744920190999375,0.8721655689541098,0.7530147026156429,0.6311697541970933,0.22604352821323132,0.9686878980891719,0.5385453128202821,0.9138405363857525,0.4001407520891744,0.8008929542661097,0.39937041170770243,0.8718452099299611,0.5264556240817778,0.9358574815688379,0.6846520694893623,0.8018330565729052,0.48976334847544617,0.8932582441427493,0.7118599096826295,0.7683156512365249,0.2960306583563217,0.838320978387141,0.5477413552272034,0.9988264456397228,0.9934602221645039,0.888653699341934,0.6061482062601253,0.9026013389018783,0.41562206384152156,0.8376570985323469,0.34084678933173623,0.8082966280373621,0.3977176025508874,0.8464603501368206,0.51334758041274,0.8917013444897605,0.4223274831687566,0.7296859182409383,0.40615109805591415,0.9337454797224911,0.8261943507266227,0.9598260915061281,0.9387798185613472,0.6963322150360781,0.15545131733984216,0.7777035025879229,0.4327279157438989,0.8698824669537544,0.3095155922576051,0.8525367834563041,0.5055189196313675,0.5829171946038608,0.7679893289087345,0.3453949795428824,0.7215908666330401,0.15459235065306925,0.8195697129594132,0.37790207379488383,0.8789109768133951,0.7320642944790536,0.9517934174604418,0.43627544280906794,0.7401827271868311,0.13843643226245894,0.5790632431893593,0.03465095342711509,0.8341876735003598,0.4204228589511738,0.5612410248212576,0.03993197008465836,0.6649674046872138,0.14015399691821026,0.943242350585205,0.7367954416386868,0.7426699665451025,0.2553099254574062,0.6859987336614591,0.2381212120077472,0.6738439530835942,0.13930624556513613,0.7467188232092405,0.2633602263608347,0.5579837741889113,0.1385108600474195,0.8444187698291076,0.5128326693181459,0.9568898621430262,0.9160240549764019,0.6146868348353789,0.07314580056737721,0.6407228447667027,0.1454828487260947,0.7463336144503887,0.3119357318793912
28,2.551820719026784,0.7683784253807359,0.8884985170128991,0.6100249465763434,0.8017461722262813,0.3092888127498177,0.7930721013277798,0.12993061728000768,0.9048008474229017,0.5990639297458733,0.8996580093105615,0.7967565562603054,0.7360997004626482,0.3105082672401922,0.9630510381338406,0.6359164087127323,0.9293193951701051,0.3674306613551596,0.831935272377999,0.4128040925829098,0.9012586318677908,0.5461964868944414,0.9480575338257725,0.7208797619907074,0.8236968633229174,0.47796995311599716,0.8501481994327138,0.5238290019479802,0.7988838979976435,0.3384745258356602,0.8556554956498907,0.5320145752632425,0.9991204331799595,0.9965087002343106,0.8572654991472647,0.5454420377117385,0.8855988165726876,0.41689799946952755,0.8271022345679669,0.33274687492794397,0.8159477306642979,0.4002230726028145,0.8537655504567269,0.5225653539672549,0.9187619335114081,0.5245647303161406,0.790879922266163,0.4803185851453043,0.9276589186236354,0.8234452023502478,0.9571080755007373,0.9316344387854438,0.6865559559572512,0.12273227646733537,0.7564271612004686,0.4124610301854594,0.8748969711696223,0.3384483839043194,0.8598918170842833,0.505681331557829,0.5620481478721026,0.7894459491333805,0.3398572450456325,0.7230737077098395,0.11821744546992204,0.8547616934242607,0.35446209199217993,0.9129282245290675,0.7702926311038237,0.9398221084567541,0.5011806954935355,0.7769241784289664,0.13088125668195544,0.5893288332550092,0.03998102720766239,0.8079279868942093,0.29370817942221245,0.5431379489492404,0.040896309069468666,0.6657797812207635,0.13084626191276055,0.9334909919472396,0.7581268304244696,0.7236236790074981,0.21438507921549202,0.6762700527513532,0.23967116045943457,0.6709011054991075,0.12092562566132835,0.7623899844849015,0.25006652366153126,0.5928508956822156,0.14067795550462067,0.8344209769859442,0.5177138907849967,0.9513660615192526,0.9001214688474508,0.6304441870947012,0.06560913860644935,0.6178187960398752,0.1271340128244592,0.7498353571506791,0.3027377414694693
29,2.5467593329331466,0.7877568259173685,0.8559819114834483,0.4889656068870303,0.79800054859897,0.38406254209261176,0.7895809188762013,0.17213006666146072,0.8604374875161034,0.565844293098852,0.863723856679939,0.7427689193465568,0.6728631772945426,0.24641549268205493,0.9493929255457918,0.5278273863006842,0.8766260093008883,0.30316008444114373,0.7802980765032768,0.36888087731587993,0.8769904586774081,0.5232588745123107,0.9370452675696287,0.6896770818050864,0.8258980394119505,0.47276981261068696,0.83144054092595,0.5373883589251867,0.7483404549401727,0.2867861521003353,0.8216211526514101,0.494087396657452,0.9996084925734179,0.9980704184966105,0.8782948076199698,0.5912474327602459,0.9101246372138392,0.4558576218852565,0.8627957320583651,0.37665585458931256,0.7995445063461984,0.34835597391862083,0.7852394653865241,0.48467223382307656,0.8574405853297662,0.3730510065397399,0.7743086727903623,0.4409004572476118,0.9205419973704986,0.7988145151255902,0.9647306118123,0.9440872693856674,0.6738577708959486,0.1314150204055162,0.7654386929605258,0.3859288128788928,0.8641087842258339,0.3424790990277737,0.8408669850914012,0.48126995219718743,0.5914138779160766,0.7413099740542827,0.2506857272473147,0.7045449079003905,0.12851901334394045,0.7952166826878587,0.3371052146735533,0.8796273056267391,0.733368749660428,0.9273759155843856,0.42672836896077954,0.7418159805300708,0.1148799078464194,0.6007111832642656,0.041627607730241906,0.783526266149607,0.3001166118128625,0.5421952340444967,0.04286193604567546,0.6441135750310696,0.1081241981538382,0.9432142756053724,0.755095084177831,0.7389823920549081,0.2443065683346714,0.711126881893208,0.2363000000669865,0.6546435317018187,0.09786387676380479,0.6930882761406965,0.21204922838273907,0.5754544228498701,0.14032797738298214,0.8322076484783694,0.4962090527413382,0.9607706220262868,0.9264167094711713,0.598931854794361,0.05424751986043359,0.6234130822800251,0.13046597115389824,0.7346135006349042,0.28886496619054547
