epoch,train_loss,train_accuracy,train_1st degree av block_rocauc,train_1st degree av block_prauc,train_abnormal QRS_rocauc,train_abnormal QRS_prauc,train_anterior myocardial infarction_rocauc,train_anterior myocardial infarction_prauc,train_atrial fibrillation_rocauc,train_atrial fibrillation_prauc,train_complete right bundle branch block_rocauc,train_complete right bundle branch block_prauc,train_incomplete right bundle branch block_rocauc,train_incomplete right bundle branch block_prauc,train_left anterior fascicular block_rocauc,train_left anterior fascicular block_prauc,train_left atrial enlargement_rocauc,train_left atrial enlargement_prauc,train_left axis deviation_rocauc,train_left axis deviation_prauc,train_left bundle branch block_rocauc,train_left bundle branch block_prauc,train_left ventricular hypertrophy_rocauc,train_left ventricular hypertrophy_prauc,train_myocardial infarction_rocauc,train_myocardial infarction_prauc,train_myocardial ischemia_rocauc,train_myocardial ischemia_prauc,train_nonspecific intraventricular conduction disorder_rocauc,train_nonspecific intraventricular conduction disorder_prauc,train_nonspecific st t abnormality_rocauc,train_nonspecific st t abnormality_prauc,train_premature atrial contraction_rocauc,train_premature atrial contraction_prauc,train_qwave abnormal_rocauc,train_qwave abnormal_prauc,train_right axis deviation_rocauc,train_right axis deviation_prauc,train_s t changes_rocauc,train_s t changes_prauc,train_sinus arrhythmia_rocauc,train_sinus arrhythmia_prauc,train_sinus bradycardia_rocauc,train_sinus bradycardia_prauc,train_sinus rhythm_rocauc,train_sinus rhythm_prauc,train_sinus tachycardia_rocauc,train_sinus tachycardia_prauc,train_st depression_rocauc,train_st depression_prauc,train_t wave abnormal_rocauc,train_t wave abnormal_prauc,train_ventricular ectopics_rocauc,train_ventricular ectopics_prauc,train_mean_rocaucs,train_mean_praucs,valid_accuracy,valid_abnormal QRS_rocauc,valid_abnormal QRS_prauc,valid_atrial fibrillation_rocauc,valid_atrial fibrillation_prauc,valid_incomplete right bundle branch block_rocauc,valid_incomplete right bundle branch block_prauc,valid_left anterior fascicular block_rocauc,valid_left anterior fascicular block_prauc,valid_left axis deviation_rocauc,valid_left axis deviation_prauc,valid_left ventricular hypertrophy_rocauc,valid_left ventricular hypertrophy_prauc,valid_myocardial infarction_rocauc,valid_myocardial infarction_prauc,valid_myocardial ischemia_rocauc,valid_myocardial ischemia_prauc,valid_sinus rhythm_rocauc,valid_sinus rhythm_prauc,valid_st depression_rocauc,valid_st depression_prauc,valid_t wave abnormal_rocauc,valid_t wave abnormal_prauc,valid_ventricular ectopics_rocauc,valid_ventricular ectopics_prauc,valid_mean_rocaucs,valid_mean_praucs
0,5.415405425267605,0.2289901534234028,0.35138894678483,0.02626259116307321,0.3287409689291636,0.11311169797751183,0.5803802678588597,0.019365442182200075,0.3296065593957803,0.04869885744153188,0.6034701212634805,0.08887179832834437,0.5860580935527937,0.06255854672970806,0.8998291930030385,0.30673893546637176,0.6029691528135834,0.0237962922360875,0.2876181710479364,0.1665278763025811,0.8299429883975914,0.07231638711414644,0.443079429150226,0.14323550959510084,0.5146801179160819,0.2509432248093356,0.5709407082397013,0.11169329191473071,0.3762807176060775,0.027114234716511663,0.36819226560146967,0.012610831235136209,0.47797898722184107,0.019448354069422927,0.3826151485698682,0.018767510967616648,0.42321079118663085,0.012919637060534592,0.6509402863530998,0.05732485713031436,0.549782568774036,0.03950432248638673,0.5470352101341563,0.031059471087054518,0.7686767915254891,0.9441536632502134,0.32544290529119246,0.026872994703954618,0.48537159306390076,0.04626576626621849,0.5356642449512854,0.11974539733974884,0.5761225409273795,0.05506805380898547,0.5152314911369036,0.10942213636087776,0.304029304029304,0.33341508995627084,0.10713979330731588,0.3147740182350077,0.04581492430147553,0.5948043624229353,0.07254194803288819,0.8824019722028108,0.2516972191412576,0.29768788669618507,0.16587198016904053,0.420937158345481,0.10610137924576318,0.526934917800628,0.25393001718240926,0.590478348263562,0.11963800331596644,0.7749298153859103,0.948042252545376,0.4837516116730528,0.051827852519389886,0.5469227301764642,0.12462721142083724,0.5664942541062891,0.05571582913778041,0.5277943471053831,0.19191236752662502
1,5.029404376465058,0.4398137546752156,0.30152333947493476,0.024398440256963718,0.4221259443721221,0.14030435187882215,0.6224214828302997,0.02492802845176203,0.622366577670856,0.09208924370989617,0.7685083981317653,0.2145259385929509,0.6796318012180287,0.08235472919628492,0.8973382781583982,0.426228156451422,0.6423983719187737,0.028377052575989752,0.5667425541903202,0.3225432575172196,0.8914859789582978,0.11432343695664451,0.8274136777130111,0.3722991414883797,0.7420094391585007,0.44257349870986507,0.855779935667261,0.3361971491927952,0.42565095254513063,0.029517654921393993,0.39599218955490956,0.015465761748724322,0.49599377903771946,0.02154319171045977,0.48725135718827634,0.02583451546282916,0.41591292830337273,0.013723425468989836,0.5983824595276548,0.05167449183262443,0.5638222662102729,0.04634156695325449,0.5402673948238381,0.03678644944222652,0.8066323847960648,0.9536441585225441,0.3448754147732411,0.027859016148275174,0.4551071956049332,0.04153038489255895,0.6165488907912562,0.1645370275472721,0.8519610005386222,0.18325250188130596,0.6091593843522254,0.1628020219812098,0.48603479853479853,0.41863968766640003,0.130741274194191,0.6217954533159666,0.08923942329539516,0.6379870592304719,0.07630842539887264,0.8683818619458032,0.3682867659858898,0.5812680702577486,0.3300866356822016,0.8251665565779884,0.30904416707196947,0.741145025776514,0.4409434717338338,0.854184821127726,0.34302345604484274,0.8147111159203352,0.9581135059375587,0.4864925908438811,0.04935465026258419,0.628493679532526,0.16611979315394015,0.841144500723663,0.17976328068302783,0.6932842019099187,0.2867520707870256
2,4.722796055790341,0.3806579650408366,0.3658222381551852,0.026395182628113387,0.27454361953460854,0.10339690825356442,0.5209373778259808,0.018245343481685824,0.7098968279180334,0.13704464445016512,0.8792955590177343,0.4506905192158447,0.7819444048036155,0.30458284743417086,0.8836052790052893,0.30164882786529545,0.6118459736103528,0.02512300580071918,0.5505984769726332,0.31667757426576904,0.9217860390748718,0.180594444234448,0.755569155615643,0.3626977519125282,0.6504142782563858,0.39398889696323014,0.7996034856120698,0.27249671848222884,0.4013231350343331,0.02911325100101411,0.3865158409890959,0.015493628903964704,0.5650777714030726,0.028573805990616652,0.37802574695479985,0.018764334883318134,0.41326949925123346,0.013314741467255253,0.6066945487851864,0.06722511415244851,0.5636714576629248,0.04393579817338501,0.5700856080012218,0.04679331794255917,0.8049039451219389,0.9541937557611615,0.4854747427601699,0.039745005991962123,0.46300941934426093,0.042101331592856464,0.6283150496417649,0.2270371065697162,0.8809785946658689,0.26678404327039695,0.6097387721160875,0.18025607310340064,0.42536630036630035,0.28255911250547383,0.09811843899452874,0.7190169241844806,0.14598271953780734,0.7894856247583779,0.390712823069138,0.8800225172761861,0.2856707568715049,0.555218602468991,0.32067704019618254,0.760714855138484,0.3145038905089549,0.6488297014850183,0.38346290071867833,0.8131827529715222,0.30140831642695926,0.809553223081871,0.9567934880507126,0.47243017596745784,0.04690510765929061,0.6333072457916555,0.2158154672952579,0.8651392629771605,0.22466772989246847,0.6857883332172232,0.3070598899351236
3,4.527619713108536,0.4185940004579803,0.3581551852067997,0.027839016737100326,0.3203492021296235,0.11161135322476674,0.5852666945345085,0.022969740852022434,0.7289619346594661,0.16799129371200033,0.8658326489491683,0.5515068353674321,0.7765843427802075,0.2699013053851723,0.9406777823960571,0.6413385053284676,0.6121596522865524,0.025679514362824712,0.7537574057503341,0.5542121406723841,0.9001634503848992,0.1452066434489611,0.7591844199343407,0.3231746320560071,0.786821143788441,0.5565980486010372,0.7557621203459531,0.20176132215194895,0.43663608988588476,0.031450588871574266,0.4839380602130666,0.020590295564301815,0.6033474076823946,0.043590537201152246,0.5063128588696049,0.02810257272906265,0.4627223925922832,0.014521680152375418,0.6828651282714456,0.0960975269417797,0.5686174441803737,0.0453310696622687,0.6907687266730855,0.15443955363290504,0.8511895254200815,0.9641352959048735,0.5456399267534886,0.06678724425520235,0.4318330562674454,0.039265450091734405,0.738278751074307,0.3437857452327926,0.8823226708484468,0.33622504616234666,0.6549287700722407,0.22246588301163436,0.529532967032967,0.3246279319823274,0.105791818966202,0.7350480843254671,0.16748785065514973,0.7616049809754413,0.3067861364432933,0.9398439319822968,0.5661068136429679,0.7463956250183268,0.5358357557152522,0.7500381514212828,0.2664026983342461,0.7769850154771034,0.5437008654651966,0.7628423205177363,0.2104884115215386,0.858993925348819,0.968226154268076,0.4568258893711297,0.04584531876304214,0.7382294947774215,0.31673782542318146,0.8778761387349125,0.3215576508970835,0.727442624161022,0.3629139416746025
4,4.323917062434884,0.49133653919548126,0.40641725095250403,0.03165082714938579,0.33237789566547693,0.1121877917715145,0.5539743008174487,0.021772581894032195,0.7933618108029968,0.22744926537435695,0.8929067103867375,0.5534786009402424,0.8341690098497345,0.3600703361832768,0.8691999972410753,0.27835877158567296,0.46293988037031863,0.016830384574127645,0.48148915550072735,0.24292902434912117,0.9434876039985183,0.2893442322514845,0.6214320689296878,0.21358449661525686,0.7101433489623012,0.49313192460568345,0.7144884335425947,0.17490576847524614,0.39469370285890915,0.02862880459914962,0.5399537451568017,0.025039495424577278,0.6507830262850343,0.04525695099263246,0.44506215950948363,0.022615131997231946,0.593261884803322,0.023767037384469582,0.7246289930592105,0.11599202156250257,0.5884852914065998,0.04601672678170371,0.7032802061803898,0.07687173261735891,0.8298063879589835,0.9592466171019216,0.6837351381141027,0.22699969321939578,0.3902944737786367,0.034194867080691645,0.7762840465822158,0.3763730565295424,0.8941311546327532,0.4018531992112387,0.6473379875902524,0.20763651308737757,0.5469322344322345,0.332627471458852,0.10467107420164626,0.7928990832560017,0.22017016271127787,0.8361415752741774,0.4282563540198792,0.8705574967000543,0.25215624765510536,0.49132627628067904,0.24880787284934403,0.5949304163629737,0.15938293894056185,0.6921959574813463,0.46239390786896106,0.7324613382597278,0.18948377252709175,0.8376390917780304,0.9617615690599601,0.4044879419616104,0.03832772353188124,0.7670196320273891,0.32670241841329467,0.8850473981330824,0.35943305457298697,0.6864444732478271,0.31262892469599923
5,4.1615255241329985,0.5946110983894359,0.3610401260556746,0.028386906642951203,0.2972848473475919,0.10723021606482437,0.522663391839185,0.019737353345267272,0.7774858296777233,0.29246170446436864,0.9207217267146675,0.7049690413320218,0.8567448856769428,0.4414366324841542,0.8961368732088544,0.46177629288177163,0.38594255997358495,0.015569731830866417,0.5015906456118606,0.27760701683942013,0.9251406700789807,0.2321923936674277,0.625617101976574,0.3038680144645483,0.6288783689926823,0.40036983625543776,0.7381357534069743,0.2236394871057938,0.3732409292940959,0.028821531890338238,0.530220671308505,0.02132858347416683,0.6296502536757674,0.04660199662864761,0.3857506926768164,0.01991539743887561,0.7092755684360625,0.03963775209152735,0.734857977964973,0.11995991095947708,0.5828003874934428,0.04739195967173719,0.7089164333031878,0.09199794946203607,0.8353157741943997,0.9617642841114653,0.6887155276170545,0.23157846978429558,0.43646552175963943,0.04315680344013276,0.7910258803099799,0.3976539268789277,0.9018778930873821,0.5209254578143128,0.6440575496801001,0.23384533273172284,0.6078296703296703,0.3019010984718433,0.1011547274486074,0.776537512432014,0.27957649650211325,0.8475430850306225,0.48465712361079094,0.9018215699976705,0.40003111309100736,0.5074761751165586,0.2820925703465378,0.6109810609511661,0.23593864721293592,0.6245738898746718,0.383828901727731,0.7541967304541811,0.24452748937741864,0.8353468202011458,0.961535106717682,0.4475445820545881,0.04770122408140622,0.7776091459418203,0.3385176109548175,0.8928999322810856,0.41742415131261573,0.6898693002339473,0.3480820968653053
6,4.033037766164773,0.516754446225479,0.3336601999216321,0.02644819597469409,0.3784111309617664,0.13501926425428995,0.5765727112110619,0.024823620147782277,0.6663501693656906,0.19295969749652422,0.8685074084585858,0.657964972741863,0.8201215371412149,0.4514850485484449,0.8823809240722583,0.42536675836942056,0.3920097659474493,0.01575661811035297,0.6583138426114961,0.45945874070343,0.8758718931132723,0.21193399647326802,0.56176026051644,0.24546140192307847,0.6944158067981883,0.5099874688614797,0.659574599105875,0.1551674846452347,0.37244625002759896,0.028924244333450734,0.565189482678965,0.024992312976679948,0.6021932423125431,0.041838229791188244,0.46280454388353487,0.025090258962792298,0.633349417394054,0.03724510527106933,0.7585706437782008,0.12196009806057524,0.5882210428015121,0.04954077838400843,0.7668183272006385,0.14211692563999895,0.8536241405001797,0.9661927251100415,0.6652534888901163,0.2874883543684339,0.41585081177841354,0.041440997386461655,0.8224279379813255,0.4382240819675246,0.7773568028744151,0.32219990489024897,0.6404637069740934,0.23227258789970526,0.5748626373626373,0.3785655104923284,0.12229436856431115,0.6499877240363368,0.18714065422434523,0.8421144729078073,0.5126974773342553,0.897058001397624,0.37667317447983917,0.6543793801131865,0.4567015931995505,0.536164700255102,0.1766584709882727,0.6783512266933854,0.4702481131547255,0.6669339003334611,0.16789700055935775,0.8552626437507138,0.9683824247782306,0.44133850582018264,0.04617706290999782,0.799429484821752,0.3710336041675588,0.7404567911448582,0.2619768449110939,0.6783368618138949,0.34315673243929484
7,3.940126262760446,0.7013968399358828,0.5304129323784671,0.052402247572115986,0.43850245266357135,0.1483740110736753,0.6872373592395069,0.03462598950330131,0.8897582835706357,0.4148013900406599,0.9405792674539769,0.6997443623794071,0.9147286402091199,0.5117588324729526,0.9351612468303159,0.5462971274002464,0.6425225099373914,0.031146196447644936,0.7929157379816333,0.548600671042406,0.9461269424097642,0.3880793554252259,0.7428481201441426,0.3783276437463607,0.8052072262899403,0.6075081163848741,0.8064664018188094,0.2652805293020178,0.4714400355983702,0.03627065412743748,0.7134761863876659,0.04163497371932019,0.7073244737430894,0.04970541952975877,0.5382800610281214,0.030052388515713888,0.7318558370970534,0.0354263009019526,0.7929971573204428,0.137924389738457,0.5852363681529361,0.04781429745720576,0.7879015151920551,0.11806639027305615,0.8802488920648905,0.9722515325928107,0.7774257140897568,0.370065935064935,0.553611711756508,0.06015595052199154,0.8555238966072121,0.49437491433720027,0.9010304072442212,0.5209929668516114,0.7449545914311385,0.29006471486239765,0.7174908424908425,0.4341924289118282,0.13351962875372275,0.8829838498254315,0.3980209277953811,0.8926953832380409,0.536170730365101,0.927759919248389,0.48421991286547306,0.7794504882268422,0.5403957540844572,0.7097371537900875,0.274824438378693,0.7822556268926565,0.5558584974290981,0.8075998931065331,0.28441255581398933,0.8780540451586143,0.9725591540121117,0.5743106125265585,0.06882175596060942,0.8348874317967493,0.4132036731090486,0.8782857207059519,0.39888740802655454,0.7818510461189736,0.42174120304951995
8,3.822312540939205,0.6380428974887413,0.4533800762003217,0.07901383379878324,0.3887455254581397,0.1425710395389151,0.6526561922510783,0.03613007741156472,0.788981280540257,0.3467868282433324,0.9298824939227358,0.6130491611808307,0.8991828056783601,0.5681867424218983,0.8966596730115913,0.5002021219001209,0.5165611546423174,0.027021861702898248,0.667875767120383,0.43149558891841233,0.9441150200403603,0.3238146302959538,0.6049522096168203,0.2534037521593459,0.7176862807103713,0.5393552769119605,0.6762989377985137,0.19855341072754662,0.43502218953754385,0.03580795389556571,0.6291765983746751,0.030920722419116073,0.6607378783731253,0.05659272511219069,0.5573069527375771,0.03708622289231334,0.6879362832544793,0.06502218553914821,0.7920153184573009,0.16754252408534182,0.5901179385121078,0.06068822161524353,0.7873527010956524,0.13331747450206832,0.8689930021945541,0.9703047234637895,0.7490387457536384,0.3939892462325666,0.5037352154999214,0.055081800903798925,0.8521541431759792,0.49140836776575963,0.8381029894832887,0.47479457201168734,0.6957179759015806,0.2704669640634674,0.6668956043956044,0.3894433216900389,0.12290446205671841,0.7685352486610877,0.3329430259010289,0.8616446578631455,0.5001904584118728,0.9009899836943862,0.46317513822642425,0.6655213617570301,0.4361449990259857,0.5684203033892128,0.1746503457451328,0.6974243077284762,0.4896573467543571,0.6651353015673837,0.1971705970355654,0.8628972869964592,0.9692627483319968,0.5184292543628671,0.06304237907799219,0.8175911151179609,0.36546518872388,0.7894176684061133,0.3559932028372925,0.7087874842695134,0.3725499910106873
9,3.7513467590732983,0.6075108770322876,0.5112327111140753,0.12623906357120596,0.39868308059583235,0.15671165289367603,0.6543268385120282,0.03387475496671925,0.9059407826872213,0.45380458845048993,0.9115677530258837,0.7028044553185541,0.8486757899077623,0.4572703683506041,0.9275198466037883,0.6168199796993883,0.5523206824733626,0.03017960683557984,0.7727818947201783,0.6028840326599382,0.9466952107730342,0.5090537922088242,0.666959484899074,0.3581574223328996,0.7723862715048674,0.6440853917971001,0.7894742405601849,0.2529208532469275,0.4586961247709288,0.03790594274685463,0.6207256177420168,0.030361484249677252,0.7408221432258758,0.0845601128196104,0.5336681032589704,0.03378479992810798,0.6002537900709389,0.030241707575994863,0.8191068198579228,0.14891447950676845,0.6191828828117047,0.06911777984279927,0.8237149023454624,0.17160670480512155,0.864581400494942,0.9693097600174985,0.8196030771060951,0.5069718729240281,0.5466745373985193,0.058520694040936655,0.8734080065462252,0.5186660296342211,0.9428031473862653,0.6781992968333096,0.7277617361689676,0.3185756395098783,0.6483516483516484,0.4008217465763986,0.13153211226713854,0.8885900119430562,0.4389823467880304,0.8271227134921766,0.43118961546159107,0.9236870098610142,0.5668306782294936,0.7608538838225375,0.5655829159618495,0.6309698432944606,0.2370518477487518,0.7369824406244577,0.5600864442031511,0.7880209604145608,0.2565984112572102,0.8607047692474166,0.9691351224781958,0.5739349338079067,0.07052591713475129,0.8401891024134203,0.38314648144052843,0.905345708632987,0.5100584695507676,0.7614352603441995,0.42672669687678827
10,3.653567003990874,0.6053736356003359,0.5938539521622049,0.12332998507242893,0.36857788949743964,0.13044435906697754,0.5832923267772693,0.03046708227163595,0.8373015441011125,0.3563879258922294,0.9450065871975877,0.7309239353566143,0.9104869211509465,0.5903035154664152,0.832657752602955,0.32174012801661755,0.48021030440801094,0.020005597314309176,0.5907513267043965,0.33520312478559494,0.9432871778648431,0.720938663445218,0.6240521052077131,0.30754717774983503,0.6766290759967863,0.5100610691988636,0.7723718943383502,0.2713263207093133,0.4069198578103266,0.03296065816151926,0.47322254794135965,0.017605197940194446,0.6632258883026659,0.06343784498110464,0.4256408334654082,0.021659196169040593,0.6008884516941214,0.033861294778198055,0.7667433057352487,0.1419770180483994,0.6162690303481959,0.07422305058965142,0.7980290030703951,0.17613068223948122,0.8620871406443178,0.9685194204933856,0.7752740826432838,0.45154403217466144,0.4500353443792358,0.03959623431617842,0.7856767098699339,0.43511513503775323,0.9213802212530746,0.4717971774001943,0.6809181259679685,0.28373483948753137,0.5762362637362637,0.37207829721444974,0.11686029254967616,0.8300590494658915,0.3445103927919811,0.8759324068610495,0.5753745131341614,0.8424970882832516,0.32542823144877076,0.5838965780136645,0.311662431555397,0.583539085276968,0.19043076758877442,0.6561228316662095,0.4501335401945213,0.7634923954593514,0.26204852779751403,0.8540385459310957,0.967358545425119,0.4712134763106761,0.049742838141319703,0.745394811436852,0.3113703817635349,0.8791722971420166,0.3540335013995436,0.704786405255123,0.35491283031585946
11,3.557098641904035,0.5835432409739715,0.5578715599389731,0.12295319168706817,0.4197432793369447,0.18804761170170198,0.6572476209669667,0.038058773555618826,0.8361289677794713,0.4296851003205285,0.9013440935969151,0.5729948737032711,0.8732667252585458,0.5637551842904472,0.8062701161326642,0.36065745203701977,0.46233220730731617,0.04053725101174192,0.6413042582923649,0.42921389831101875,0.9524883034057345,0.7692242649869755,0.681851190746152,0.3777567205323757,0.7626350280737284,0.632518157186065,0.7321366003756694,0.21502119580868057,0.4388666776496244,0.04455250021250645,0.6219489384145519,0.030420022883653395,0.6352726498899426,0.058920806181737305,0.5039574712665627,0.02990346961238885,0.6407535544034031,0.0755010424040505,0.8056698374890856,0.1607609205712284,0.6141441868509894,0.10431405683104135,0.7899920101394252,0.15879952124534166,0.8818838043537841,0.973298161824763,0.7860594008085764,0.47922759699589407,0.4851634240774513,0.04961698355366925,0.861176510853775,0.5391235780504102,0.8884390793692097,0.4533789012343873,0.7014595191068393,0.3037785091051379,0.6561355311355311,0.41553691075096166,0.14522175557298891,0.8246210056302977,0.413689280088338,0.8615205404195577,0.5462909438339906,0.8071884463079433,0.3081435442015985,0.625687182945782,0.39832489614073113,0.6312539859693878,0.22813647586270086,0.718451897834325,0.5168049834484807,0.7202487596872204,0.21698118171485536,0.870450023144391,0.9708624199468492,0.5050745001543574,0.0571882972640685,0.8177974187161058,0.37129226107049695,0.8473852634245344,0.36271605718495864,0.7204346612487388,0.3779710080275048
12,3.447393684494214,0.5921685367529196,0.656379400902065,0.13304864676024009,0.42806092109646854,0.16073347149920392,0.6633578351956599,0.042678037882285115,0.8971578152718238,0.4888863400245181,0.947201606826665,0.7193567720370841,0.9237336969572904,0.5952184857564395,0.8702366467635432,0.5096694228089774,0.5660033272798852,0.04335464585477758,0.7176357006315219,0.51470820407437,0.9697443288079164,0.687916730470309,0.6002417415179899,0.32043081257938744,0.7620709539440385,0.5801763797255133,0.7528379708052657,0.24353414878503887,0.5059936378103606,0.0467125821409454,0.4815467843071518,0.019811369647446255,0.7524498866927404,0.13960002149206152,0.5074176330407318,0.03169864724244016,0.7282451270516499,0.07383101322221763,0.734699002439017,0.11945136190310024,0.6332334349044471,0.1495364018454659,0.8235360463732989,0.19676806194059335,0.8828467892720617,0.9733825268437897,0.8406747261297886,0.5078372627589938,0.4201844627183994,0.037914509899126314,0.7946227487843837,0.46362475014943827,0.9243420532204107,0.44857028213584943,0.7224790107209451,0.3172481111338312,0.5686813186813187,0.4253481166851356,0.13616824568254085,0.8866866133737262,0.4848318021115684,0.8556188577125765,0.49519258749853956,0.8618798043326346,0.4214692671877571,0.6948772835234436,0.45939308068545887,0.5351978179664723,0.16918253922837986,0.7286316617315324,0.47267294366702917,0.7409332264398667,0.22897685347999297,0.866937035233578,0.9684926638698288,0.44250356384041256,0.0470364314806381,0.752106038943261,0.3018936371540388,0.8897029458238471,0.37559389912926705,0.7233685804672073,0.38007532926458665
13,3.3677869405685312,0.6076635371345699,0.49833659866441005,0.08422157769270032,0.3528415105436517,0.12041367162961397,0.619722171384379,0.038651401517933934,0.8271449120690455,0.4333382586473025,0.858832262808887,0.5595578131455151,0.808738071664495,0.4208697736544085,0.9000143529771507,0.5081164585459201,0.4712857015861727,0.018487742175891927,0.7992242322682694,0.5437100389951441,0.9321270812096502,0.329314777940937,0.5866964236221346,0.1568585870099091,0.6788031193507337,0.4730591152236897,0.6166412883408107,0.1585529637675854,0.4227700491345826,0.03374441346312582,0.5579091829628449,0.024691066567483322,0.6534775891615012,0.056246773279020265,0.4694419010756302,0.02452700993916214,0.7430228239533676,0.12496259578564048,0.7696909943497275,0.13115797362393847,0.6064578444289277,0.14008462872448674,0.8044159518945355,0.15374172532636657,0.8838872433681227,0.9735000961213631,0.8232239025920939,0.4961278038129724,0.42852398915747336,0.03804031500157517,0.8100372957609498,0.4761469622716663,0.8678248540277066,0.27151966306283204,0.6842727441675867,0.26114012334331477,0.5842490842490843,0.36117787102464416,0.11308251274339458,0.8076984856870586,0.3767167454191024,0.765333591063544,0.3638438541988873,0.8885759763956829,0.42708265713950744,0.7722880684983726,0.4930837589964063,0.5476260705174928,0.12368081465566833,0.6464397064667984,0.380600482720603,0.6059154495915973,0.15744839571297176,0.8682325199733089,0.9674563560409714,0.4409333175949298,0.043412756518703965,0.7545036960423447,0.29781718376868355,0.8230983803637619,0.25132716528741833,0.6901519277682947,0.3329627236001932
14,3.2409692499785194,0.7354400427448287,0.6675630069947559,0.22365821297969302,0.4408086905039591,0.2028058336030324,0.6322940337419272,0.04138691067873631,0.8780973040694168,0.5140380180298376,0.9599213394337459,0.8102855428823048,0.9084522394170469,0.5626832955543506,0.90142074767187,0.6684333595028071,0.47315761401013423,0.021516192929489506,0.662304895702517,0.5084395224618887,0.9458464134199661,0.5398815114866904,0.7430343035869363,0.4022518445198901,0.6470471740785244,0.5741433872501183,0.662556212113628,0.16968786731921076,0.5075724662910948,0.06113135268000858,0.5182188069412247,0.02075238961469447,0.6519970326372406,0.06157242910654416,0.5162022406257101,0.040774204632683955,0.7028746964661802,0.11043079992856436,0.7606895377563114,0.13167929435807108,0.6426748507217812,0.1658702323433927,0.8289095466278961,0.2085786596632142,0.8831898380577486,0.9737825353441877,0.8037765228786097,0.5791238542199303,0.4372203191207716,0.04674278985289934,0.8124465562840273,0.5183578398198178,0.915287130990047,0.4449271165867679,0.7116755200055027,0.3308821152826472,0.6808608058608059,0.4292724345861354,0.15147172807530515,0.8456491071837274,0.48386857497421065,0.863886910696482,0.43007197823352183,0.8993656339777932,0.6157592575044918,0.6336155176963904,0.4328133475623487,0.6983452532798834,0.22942037205827426,0.5962325987539951,0.44654287506005513,0.6794747115619227,0.20607308027341315,0.8664346967483634,0.9696893606116823,0.4831795812374017,0.051354906029004346,0.7543925243983043,0.3269962547387293,0.8840597029560378,0.37941419382938796,0.7194923894230364,0.39362299407920204
15,3.1581899889297462,0.663460804518739,0.7304049288435726,0.19314609103432043,0.3879398581612038,0.13077093519376942,0.6806005282546446,0.04656686960856742,0.8705496443142029,0.519031818938352,0.9529001953178731,0.700201796175054,0.9340987758693317,0.6547437575668013,0.9229586708157829,0.5891488518699686,0.5673021728915586,0.02585834008365067,0.6654819074941222,0.4085664244152879,0.9744500054528527,0.7126059252727128,0.6364411480346444,0.37298966403593903,0.6670139272239166,0.47435626024107996,0.7150468006185637,0.24222708342464613,0.5321842555337972,0.05029938216970327,0.5657024221783388,0.025435813748374038,0.7246789835970086,0.13427955475351114,0.4684156557372353,0.025845261055848962,0.7861704920380169,0.1961968744066919,0.7663174217461143,0.15910651999648512,0.6574123602151571,0.20710591686534183,0.8415478101154681,0.24239823114433975,0.8901782643737197,0.9751509088071417,0.8465106850199716,0.5322076956924012,0.4494875065010812,0.045289785247854646,0.8356328140401946,0.5090640904527208,0.915070477810582,0.48934757477378077,0.7301729889307291,0.3331515933451671,0.5927197802197802,0.39215999901316395,0.12255042796860854,0.8399780281057148,0.4927970370507341,0.8939029849227825,0.530068681442976,0.8978794937495147,0.4695941195662747,0.6237979063425505,0.34809307221972524,0.5565364203717201,0.18823899627718874,0.6255414187438078,0.37742817699080633,0.7212410099108834,0.2625784771343702,0.8686142521355961,0.9696297801636757,0.47920147275137553,0.06526404315248878,0.7732679208966741,0.3107018176864693,0.855441056455921,0.37254689732500523,0.7106301636166421,0.3757909605815269
16,3.073267380642205,0.7341424318754294,0.6342160287460296,0.1908931355667756,0.49273839572824324,0.23655781114955238,0.7162974177619749,0.04950311201345017,0.8976518134086229,0.5959447134986589,0.9685633669285442,0.726905951949677,0.9478481017018546,0.6922306712995778,0.9171001435461937,0.6914836572504458,0.5163770112898924,0.034593774781398245,0.7468504666672459,0.5224005536143677,0.9813388510794395,0.7753417038305834,0.749057504437567,0.5179840938562847,0.7454744550326429,0.5864036395615461,0.696668040960091,0.289833959517253,0.5864890937531315,0.08494283943393613,0.758810430099174,0.06510959878036177,0.7321923861021428,0.1317853670421646,0.5954287626529283,0.043630700005746995,0.7386577540585529,0.2130001739722076,0.7965845908522994,0.17954831939901425,0.6647308009597652,0.2531016575538233,0.8054767386385293,0.19472208719936743,0.8785232945513751,0.9732323576462389,0.8765145634191094,0.5842402765034422,0.5835260251549844,0.09406032446052606,0.8658200401364345,0.5791769966292923,0.9318284536582981,0.5570178908344078,0.7624909435125026,0.37937097566731154,0.6433150183150184,0.4712059752920932,0.17483986495970544,0.8741376655694592,0.5639620302109211,0.9003438663601032,0.4952008713456504,0.8767489711934157,0.5246145423477618,0.6898595431486967,0.42439086167019874,0.6598054846938775,0.28768188336939415,0.6871095040050155,0.45918069346170565,0.6960687603843517,0.26791815185083284,0.8563706438949906,0.9667575687869985,0.5695039678936568,0.08638439566173095,0.7904762958271918,0.35318170428772105,0.8783561974042103,0.4207934114004096,0.745832239638922,0.4187421649460858
17,2.934490936247049,0.8116937638348217,0.5813344227033607,0.18801963199352434,0.4259279529804434,0.19010683388436236,0.7081428694524539,0.08678078108939757,0.8789541267048112,0.5345617692151622,0.9010538174210659,0.5404124867263279,0.8613724671970773,0.5869722470912174,0.8835228807640382,0.5646268166773478,0.49729372769643015,0.033087090612989936,0.6820659939914199,0.46421381384975485,0.9390988462484825,0.7382518076885548,0.6038296197430398,0.3572153662848767,0.7106867489371619,0.6110227353951917,0.6664425207263647,0.18850363436114265,0.5137457943480794,0.09699764659232457,0.6325341289602472,0.046331406747803006,0.6538488219919829,0.09883088514929309,0.5147218885873975,0.030108366624141517,0.6948243381918632,0.18584965746456467,0.7929372595526497,0.19314949463745212,0.6439482264914832,0.3128516038242103,0.8580015304637618,0.2228006712702934,0.8727034022692624,0.971614220977209,0.894477044307827,0.6085419710370213,0.4779289134492754,0.06796053629365653,0.8719297215210412,0.6179078434925497,0.8891958306246768,0.41737622737680935,0.7173278036663729,0.3443882902445069,0.673992673992674,0.4182320010361778,0.14739898513289654,0.8617951204084776,0.5157803740633219,0.8184863776018882,0.4321550067235024,0.8744095038434662,0.47178407198401184,0.6319901474943553,0.36581971697786086,0.5333033436588921,0.18272474326560909,0.6504044197905412,0.461961985795433,0.6789448917703649,0.2091398092697013,0.8518206670393816,0.9661214493971074,0.4840058474222311,0.062027992703088855,0.7767479805200731,0.3546163391845352,0.8361273769287889,0.31526541842823597,0.7013556397928866,0.3737329910771087
18,2.8643912925455246,0.7471948706205633,0.6645472583724478,0.151508417234676,0.4137124591313232,0.1561034791669503,0.7014850307673792,0.08171009574556952,0.7903431216827347,0.4142548855207769,0.9051110161695822,0.6127475869047704,0.8907196048886491,0.6101802786022524,0.8880260862896387,0.47881494329721735,0.5674853637783676,0.04011745395611026,0.7779709796585399,0.5501797995107964,0.9676672876609606,0.6935556623955982,0.6122367005570326,0.35574930720004405,0.6270436906669341,0.4171562262071688,0.683681033960415,0.24773455646945886,0.5820111041099474,0.10577657610205435,0.6635934589055564,0.040358665631668456,0.6885431548790868,0.1653899958745179,0.4939597244950764,0.0297608207522626,0.8079287210114015,0.2331421429354447,0.8182239752135185,0.23953267207156978,0.659154176693878,0.2850010016318605,0.8691472007290902,0.24003607743171373,0.8557419155756492,0.9674792609267572,0.8933516105674542,0.6120564283254311,0.45981693493005715,0.06131106592709991,0.8774650206615836,0.5943295848467001,0.843929838373186,0.4181110193388326,0.7308806334511343,0.3385422309233578,0.6291208791208791,0.39894573018669705,0.12570536603688673,0.7541253479923598,0.36428749735915045,0.8296091317883086,0.4076575529641208,0.8502127494370683,0.33537329475036753,0.6979990030202622,0.41841918548317847,0.5325528425655977,0.17397953587176007,0.5900666662934997,0.33434328267327784,0.6915106835372442,0.24574845737422696,0.8305409775950273,0.9608171721753267,0.47211919116712364,0.0565121610082613,0.7841577641778414,0.3217896867310419,0.7823158643047781,0.3439747543817816,0.684512996005484,0.34071732890078166
19,2.71807964577328,0.7513930234333257,0.6893726395824822,0.1521504862896524,0.48655513378342635,0.2901571735673339,0.7900009756118405,0.08934388804853982,0.8313964549208853,0.5016023178503243,0.8964652564327079,0.5688897966279247,0.9084956666286115,0.625557076718534,0.9531424562542113,0.7773285166881425,0.6135488233874757,0.046929092193767785,0.8062599082528366,0.6045473858147566,0.9722974806018146,0.566015779400801,0.7057019286768935,0.4572839997329751,0.7416663277043156,0.6736591332112524,0.7219673120137833,0.23425340414278423,0.7014601955532608,0.15366841997684885,0.7658297456528761,0.08494920010749818,0.7056286146765712,0.10638922509651413,0.623771465343245,0.050181771624705274,0.8324269579795834,0.2303726078104077,0.868820463416582,0.2750827191861266,0.6905209309807556,0.26566148527625866,0.8761548970929832,0.25885524585605924,0.8683668742120618,0.9705722550525587,0.9033483512555027,0.5873843599214312,0.5670609200020964,0.07455953214054344,0.9253617271101539,0.6152202112300623,0.9182143692889455,0.6285522723805607,0.783224456785227,0.38035259061332166,0.7220695970695971,0.4415856810093688,0.18274607534182052,0.7882125780772096,0.45365444166604146,0.8303863918448735,0.44711842452841033,0.9278461060641354,0.6345073722410626,0.7288282555786881,0.4702998013125234,0.6288145727040816,0.2353467891172064,0.6663903364660708,0.5016519050647281,0.7180249108252874,0.23812530435775064,0.8442126999585204,0.9641469515588528,0.5508834692283945,0.07669504306613296,0.8210747698442767,0.3673209714769744,0.8601435886121912,0.4602238145153241,0.7338669466844249,0.41931974118723564
20,2.7212267900075577,0.7449812991374705,0.6046775659249501,0.17127072188927533,0.48718522920122614,0.24826932441081298,0.707858019280084,0.0879475914737314,0.8266100002498545,0.40523471886575213,0.9171474129943082,0.6657552964894549,0.9122475070566143,0.6739250705743371,0.9298645220187642,0.7197762004096665,0.495273230636374,0.03267542232846076,0.7718840666445939,0.5973234881286386,0.9117568460339737,0.6830422520079391,0.5937051638954219,0.3442082412736878,0.7056690612190473,0.6281697219344086,0.6002291623308368,0.13036819964566443,0.549595696945096,0.12815451073483328,0.5824962078933059,0.03310737384477925,0.7198701435058629,0.21660886438801855,0.5342817738636949,0.04330430311151062,0.6929140141639172,0.16032202534410492,0.8473688756829766,0.23330497570318998,0.6826317310436769,0.23229671759524392,0.8650049046465094,0.254638844465749,0.8787165208705944,0.9729850217283689,0.8753731214193848,0.6337866992920234,0.4509201633636023,0.04834120147690471,0.8750912534661831,0.6277538707825223,0.9091690104959317,0.5357274673456538,0.7279823540325688,0.3657037740478743,0.6449175824175825,0.4371782246408842,0.15191602768925694,0.8005925753307228,0.38751070741196975,0.8346643742242659,0.46580803612751287,0.9040189455703083,0.5828918195221416,0.7076697064774361,0.4653949320155508,0.5131394633746356,0.16823430890676905,0.62370039910216,0.46357517182489877,0.6234753157423867,0.15735171262954312,0.8564416550944711,0.9661693307766837,0.47026576715637314,0.0543227778558886,0.7675489417952837,0.33396102592093635,0.8544962601386858,0.4097808820278212,0.6994326357206345,0.3839097277257477
21,2.648414504381548,0.770933516525456,0.6623818019625334,0.17814698368338136,0.5267407439261121,0.2772868357058605,0.7738011902464451,0.0943478763549887,0.9109740579591166,0.613464891066913,0.9325128439449781,0.6835781900367474,0.9234441001980181,0.6240134911368723,0.955091357356451,0.7880272542857063,0.6113924412328715,0.054414952149603235,0.8042938309572832,0.6384224776789353,0.9691023793364824,0.7921578977797121,0.6862413345360419,0.4843674147005991,0.7479225379788199,0.5869437091064841,0.7822461925925146,0.34000166321501596,0.7283577704142896,0.16825541195944402,0.7845821050723599,0.07704505454806516,0.734913510250151,0.19951431301454842,0.6080454101926128,0.03905513142808206,0.7595519930314004,0.1501162370717991,0.8646713943298115,0.26646084493421063,0.6992342840588871,0.37047786187179566,0.8542102572356399,0.22865490924436116,0.8614940020260545,0.9695104149647282,0.881748126199102,0.6357855281057996,0.6138842263276653,0.10247955476897586,0.9131662981920013,0.6741822564828562,0.921217760885258,0.6170598534532075,0.7888931519401118,0.40976042341341135,0.6959706959706959,0.4672754896659766,0.1571056641925095,0.8807383888109794,0.570633367693262,0.848957210002645,0.38607213591048767,0.9219201801382095,0.653884247742525,0.7178773128463771,0.4897160638512401,0.5930404974489796,0.2753439958991282,0.6761994055448893,0.4493150480485358,0.7796385374185227,0.32583901976602053,0.8424441829428845,0.9642648623523267,0.5981622387273684,0.07236324752058547,0.8018633694963815,0.3500270136221203,0.8559006870967379,0.46154722315572483,0.7486681250116627,0.42967599081287217
22,2.5158879249553245,0.7768109304633234,0.626345886099694,0.1554340908158822,0.41548859325746645,0.1722439404119766,0.6930901401249211,0.09702308688382069,0.7320667343653516,0.32312653006639747,0.8513534367826967,0.4543219675451502,0.8459813959301936,0.5416959335690533,0.7929858527926474,0.4293010725877703,0.566649416456066,0.05012411774865462,0.5973187266340593,0.3716003153789577,0.9541735052649318,0.615693729485995,0.6100751788764851,0.28053778120233425,0.6200110068466317,0.483279365296571,0.6013792220006375,0.19056682118380658,0.622677401658653,0.16920679007459102,0.6035500660296744,0.04224847279661971,0.6423499788134799,0.10561115328151553,0.45061610523722867,0.02886346495595828,0.6809061565906365,0.18935427061068713,0.7943659508006251,0.293329005593329,0.6322821399261314,0.36135915217630465,0.7509855602102473,0.20536007561363553,0.8742457210256952,0.9716891791284078,0.7637438872727207,0.4246459006458553,0.49129950396918726,0.055119129504075506,0.845469053379671,0.6025504463023349,0.8114730668810136,0.36737454954435284,0.6873416802779518,0.30698693624630913,0.6288919413919414,0.3854593824462431,0.12184328939090655,0.7135443411968856,0.2640154643596682,0.7947921541497955,0.4002086660808704,0.7584463079431634,0.29627203113372985,0.5508175233850394,0.30424788766606825,0.5309743986880466,0.13992194929798601,0.5689822615042737,0.3574271238317478,0.6250223662960253,0.18099529587709512,0.8537026516859336,0.9667205310893954,0.463258394319647,0.04680278975858439,0.7279275890963294,0.2944379323951218,0.7486484305656419,0.27009515818928737,0.6434646501064187,0.30358234325587174
23,2.4748371753899363,0.8165025570567133,0.7188995139519956,0.18779731606866634,0.485787951564401,0.2225877361606094,0.8068370450497669,0.1243849150990471,0.88408042817931,0.5189597246759728,0.937279294493861,0.639439523158192,0.9439980887105982,0.7187404390629021,0.9130686648725994,0.6409187554522716,0.6035463469768741,0.04259563657626142,0.6464142702651221,0.4405962133783945,0.9495599863363229,0.38362299613323153,0.6844839752057766,0.3864529132968027,0.7267262536994046,0.6122428700316074,0.7267070436709178,0.25855757206395347,0.7711906262154142,0.23340989085880404,0.7904314211303135,0.07318633789723274,0.6951537866373682,0.18410406451941222,0.5542872923640376,0.03438105513991051,0.7518644583524752,0.2216365763035536,0.8525142359534305,0.29244782572686373,0.7035516791975667,0.408458576956042,0.8745073228039512,0.2713910019750658,0.8588881467691739,0.9683126569280263,0.8603568430680747,0.5778869227593708,0.5589212304144431,0.07524914678350109,0.8999400235197623,0.6465645413175644,0.9240971819974076,0.46405839257388953,0.773965119669245,0.3703070615729673,0.6515567765567766,0.43434065990546933,0.1434098017730186,0.8610186136899883,0.49133608117534716,0.8480853358292471,0.4744101700675703,0.8540453451354918,0.48703481936911736,0.5850948596897634,0.34776442032012106,0.6047854409620991,0.19823235154490434,0.6586965648107204,0.43760029174237736,0.7405451566802608,0.27096652997093856,0.8429908564626954,0.9645974275854058,0.5240434379937168,0.05681643406809046,0.7797999463500027,0.31745386227948236,0.8669553147090998,0.38778394005148303,0.7167001276848796,0.381450510828988
24,2.373678175672922,0.8020761773910389,0.7399343043177403,0.2149551558214817,0.4752099847493106,0.19527759953537804,0.8216399963824028,0.13178431424945689,0.8974473788473138,0.5601218325264757,0.9051202000012077,0.5819801576353228,0.9003844969037504,0.5396401098992709,0.8533632359164697,0.5292763876231978,0.6202876763648832,0.06252325967989769,0.6187365925874444,0.4031788658310327,0.9642941800486882,0.7196446897179689,0.6764516009436414,0.39444316802931634,0.7568852122602632,0.6302842964519889,0.7904008019199714,0.31269625531265255,0.7719877681554237,0.22029460136702456,0.8486138538297893,0.12352377030357084,0.6648598752307706,0.1800676826542425,0.537973583759951,0.029175297367278197,0.7574555960598774,0.22098055554731627,0.9177413178310894,0.4139573166884493,0.6775590475519369,0.33248545079305813,0.8349305507817179,0.2253148779485462,0.8380896823479496,0.9639955306299534,0.8453553590796723,0.5462357272982662,0.6761979123970074,0.11805235155773326,0.9325471943550641,0.6425452289398927,0.9046047124368841,0.5298394005436621,0.7780027736561623,0.3777797647674013,0.6398809523809523,0.4312411724434265,0.13563342560656186,0.8627330872592143,0.4816251438680837,0.8226727979327324,0.36206662917377413,0.829393586458576,0.4407080400910508,0.569855731167346,0.3162293379216369,0.5684618713556852,0.19272909777776986,0.6743652428477871,0.45920828376886685,0.7809328778742143,0.3005086940123081,0.8250952827523189,0.9608647819494123,0.6198959903390415,0.08041493306828418,0.8273753259790434,0.3393301895051095,0.8287630726614759,0.42094972747099496,0.720065503255905,0.37418902368448775
25,2.3645709228282685,0.8377223112739486,0.7853240181079977,0.23242280115503644,0.4637985075955905,0.20920192802494705,0.7508166298379132,0.1184594794695528,0.8712451322979837,0.5061194536469485,0.937353100629298,0.4663364691832503,0.9517481851608357,0.7044444028129221,0.8849152345028493,0.5737820585402653,0.6167916513213872,0.07834802188994955,0.6858281939927712,0.5113314433282021,0.9784673157814568,0.7775224506567927,0.5810365909406683,0.3372685114665678,0.6165613895478691,0.485684124341615,0.5744196683781668,0.15405071992939923,0.7031804154615136,0.2386594148810007,0.6871876537455657,0.07397020359161548,0.715975011155734,0.17607512131317038,0.5135017080617843,0.03183118039984047,0.7160810278684319,0.16169367723552827,0.8575827399527969,0.33768297307061157,0.7092288424950194,0.42215874624485433,0.9021392326852394,0.2842932256130288,0.8408928444546402,0.964305294274304,0.8264308652593156,0.5651809825030426,0.5695019667870347,0.09667737110105053,0.8814513197541978,0.7007799177951194,0.9001873489183516,0.5495800533951591,0.7508325613344005,0.37530230868706826,0.6907051282051282,0.43449444185171554,0.14834246512245441,0.8254957200580922,0.46503785675195103,0.8622805054225081,0.43201736117269307,0.849253047596863,0.4442584321756102,0.6234337155088995,0.3986045832403149,0.49887254008746357,0.163498750135407,0.5645605118359259,0.3444290602165289,0.5956284057768948,0.17705895455814694,0.8324195807558898,0.9612330300510691,0.5169157571685402,0.05747492717142352,0.7435087651374575,0.31645301842690177,0.8221270276095018,0.43159803444972544,0.6807491682341461,0.36166720612268555
26,2.332209883041213,0.8352034195862911,0.6281148340517062,0.17548489325294356,0.4493818280064512,0.25265096792599756,0.7456085004988439,0.11756256797230924,0.8073666044409862,0.45863025499695725,0.9028747741364515,0.5934783804993193,0.8928146295326691,0.6598091664161163,0.8134646690957247,0.5147954518138373,0.5888936159404645,0.06524780731573908,0.5951053753850283,0.3832385395143835,0.9116556753380544,0.4014096274071608,0.6041679114891052,0.3354134797731814,0.607044244220488,0.4897610177111958,0.5947592659429014,0.16394026142795948,0.6366709069941626,0.17005690320031586,0.7035540182702542,0.07764766439431393,0.6833937055411188,0.14108077335819108,0.5134143477189881,0.03161921330855411,0.7526751248441312,0.2673021983262265,0.8396747275528729,0.3760718441062477,0.6959984397765863,0.41152861083301867,0.8685696750007925,0.2708017561278822,0.8653814687067967,0.9702536160574251,0.8253383584599782,0.5142600869274588,0.526191730490373,0.07548424650561181,0.8936450283324885,0.6919587522092724,0.8054596719292335,0.3480377134638806,0.7212007358344867,0.34452022287867307,0.7014652014652014,0.39522494721455254,0.13646714327206205,0.7718651558215116,0.3919527582561196,0.8016216656153987,0.4006683737575749,0.7405924373010326,0.3649196952142275,0.5387599331437117,0.29531934659282844,0.5102445107507289,0.1618924855926674,0.5421842027192683,0.3319947721721582,0.6394506605319111,0.1963638214232537,0.8522858091820111,0.9653728613100104,0.5222535729202608,0.06488429036324429,0.763242561593792,0.3415370931640019,0.7389297960159216,0.2807318571075664,0.651387937734175,0.3276753748521429
27,2.296875580186453,0.8494008090985421,0.6983838695423812,0.21859756376760553,0.5429268032061632,0.31084718818427126,0.7887974836335773,0.17431954793312937,0.881991778000664,0.49457244852113963,0.9330302417285129,0.6296202259531222,0.9258204175311101,0.6681166912777537,0.728309761223281,0.42376079648657805,0.6531567885399336,0.09038542328723201,0.6440262667038623,0.44169308637710114,0.9497161362077529,0.7044320120293568,0.6192261535814532,0.3417199074499087,0.6719247576979879,0.5352498402173095,0.7320800260281515,0.22754172058174182,0.8328097746059298,0.3517959206718853,0.8200531235647575,0.10537997253630843,0.6823718778006517,0.10264916933288473,0.5918185845524,0.049053942337898795,0.7424765376560925,0.24259287779148045,0.8797039797179643,0.39453693321829053,0.7016636807464017,0.41588465167964034,0.8983855212694534,0.26470017803818946,0.8513756260366273,0.9666927331795325,0.899431714379878,0.6496134319073473,0.5833466154733123,0.08884731400523982,0.9256796278077908,0.7030413976427045,0.9094787005720824,0.49286169417244796,0.7726148403003145,0.38801948725308083,0.6783424908424909,0.48122852860693704,0.17541759674460589,0.8651574860490956,0.4270916237482232,0.8467307261887805,0.42252612436812126,0.6899083779796569,0.30437946557652074,0.5831041257367386,0.34260115656014944,0.5258239568148688,0.16445897377681706,0.6088188703113893,0.3863413466594733,0.7346590446977355,0.24402713349179914,0.8409548263569526,0.963465483378128,0.5459111173661176,0.0612733749836318,0.7803923086921292,0.31846051635193245,0.8420494623853605,0.37578902471140685,0.6953949025988134,0.3488193183625674
28,2.2466228192985063,0.8502404396610945,0.6618644901498162,0.1943232571606917,0.48411044088001387,0.28306309360137766,0.8145881743026689,0.15894450189829612,0.8919298765361593,0.6073911318952476,0.8947508573253596,0.5819328180929405,0.9218924077916044,0.6752001028983431,0.7639026401759537,0.47153357517275496,0.7029935994310605,0.07966335530224011,0.6391921493978711,0.46637164190149316,0.9163881655972766,0.5280536886950095,0.762162545134562,0.5209535729204281,0.635506423514955,0.5343249148416132,0.7284460956455535,0.25870582840184997,0.7636351438795771,0.30621318190210817,0.8167785559603196,0.1599345149537427,0.7285905214383835,0.10636091374729685,0.5327758820530348,0.04398628352058062,0.7269769224802964,0.2167430583445252,0.8951327090599175,0.41548249561502737,0.7446014988679127,0.46361881313240766,0.8838753417095832,0.24330678442819867,0.8517465685985915,0.9673421583857321,0.92056428583134,0.6813269113151272,0.630203855090733,0.12132970994988693,0.9153935648665312,0.6729664637644902,0.8472407948373495,0.35722989698605034,0.7721247504060164,0.38908856418567156,0.7488553113553114,0.4217667243006314,0.16586344913631987,0.8448842522273592,0.5216643118818411,0.8201690845829857,0.41756084148042377,0.6703602764189766,0.3202289319685328,0.5765384277043075,0.36996368993816886,0.6615205903790087,0.2416860250503079,0.5606873177312189,0.3907060478713407,0.7263021831828692,0.2772516141932812,0.8451144294757345,0.9654177003849111,0.5761594966132166,0.08570576536199913,0.7854785496801742,0.33539476160335757,0.7885985044640349,0.32223452662285035,0.6897983197300431,0.3678064721244445
29,2.1943479115640323,0.8570338142126556,0.6825774717166748,0.1861519518348704,0.47983838004752866,0.22998103649443477,0.7986739512350748,0.1773430107687345,0.8224007095869192,0.4585218696363746,0.8770618750381611,0.5242608720365076,0.8881420830101924,0.6188770526040497,0.8359834063818854,0.5878039904895174,0.6161769935105342,0.07562662929213548,0.626596606249451,0.40367371239054806,0.9480928985832499,0.7013342011301649,0.6397563351563533,0.3600808213961546,0.651042163960116,0.519208095294533,0.6520845572448095,0.2208598231269001,0.7542694266726222,0.2311650407602717,0.8210132454573082,0.12382480277178157,0.6695468459583744,0.14237273554495278,0.5044696988502806,0.03533251412283821,0.6892723541098629,0.2066356510576255,0.8609602389093894,0.43441684170867934,0.7031516584135689,0.3770475445014531,0.8465082333434458,0.2574346083312455,0.8644338111546684,0.9692072462205907,0.8204669920313769,0.5476268382011373,0.5620256226591069,0.08456568952172078,0.90535873190791,0.7194859008598559,0.8451517150785183,0.4575642712504958,0.7448098463948993,0.37116933659029133,0.7055860805860806,0.41520632068469976,0.13495985547205874,0.7985601751093393,0.39406498119974787,0.7877652756017661,0.36558229130282366,0.7917990527214845,0.4585502708175657,0.5687901357651819,0.3295957017115444,0.5502346027696792,0.18379252294554232,0.5889975426949752,0.3739139657973515,0.6675003195185146,0.24024562008688966,0.8542579667802846,0.9652538570589051,0.5254315197849893,0.06641442684447464,0.7763951073414768,0.33088665053687044,0.7645710573649682,0.3516711088828097,0.6741257563447801,0.3495776043880487
