epoch,train_loss,train_accuracy,train_1st degree av block_rocauc,train_1st degree av block_prauc,train_abnormal QRS_rocauc,train_abnormal QRS_prauc,train_anterior myocardial infarction_rocauc,train_anterior myocardial infarction_prauc,train_atrial fibrillation_rocauc,train_atrial fibrillation_prauc,train_complete right bundle branch block_rocauc,train_complete right bundle branch block_prauc,train_incomplete right bundle branch block_rocauc,train_incomplete right bundle branch block_prauc,train_left anterior fascicular block_rocauc,train_left anterior fascicular block_prauc,train_left atrial enlargement_rocauc,train_left atrial enlargement_prauc,train_left axis deviation_rocauc,train_left axis deviation_prauc,train_left bundle branch block_rocauc,train_left bundle branch block_prauc,train_left ventricular hypertrophy_rocauc,train_left ventricular hypertrophy_prauc,train_myocardial infarction_rocauc,train_myocardial infarction_prauc,train_myocardial ischemia_rocauc,train_myocardial ischemia_prauc,train_nonspecific intraventricular conduction disorder_rocauc,train_nonspecific intraventricular conduction disorder_prauc,train_nonspecific st t abnormality_rocauc,train_nonspecific st t abnormality_prauc,train_premature atrial contraction_rocauc,train_premature atrial contraction_prauc,train_qwave abnormal_rocauc,train_qwave abnormal_prauc,train_right axis deviation_rocauc,train_right axis deviation_prauc,train_s t changes_rocauc,train_s t changes_prauc,train_sinus arrhythmia_rocauc,train_sinus arrhythmia_prauc,train_sinus bradycardia_rocauc,train_sinus bradycardia_prauc,train_sinus rhythm_rocauc,train_sinus rhythm_prauc,train_sinus tachycardia_rocauc,train_sinus tachycardia_prauc,train_st depression_rocauc,train_st depression_prauc,train_t wave abnormal_rocauc,train_t wave abnormal_prauc,train_ventricular ectopics_rocauc,train_ventricular ectopics_prauc,train_mean_rocaucs,train_mean_praucs,valid_accuracy,valid_abnormal QRS_rocauc,valid_abnormal QRS_prauc,valid_atrial fibrillation_rocauc,valid_atrial fibrillation_prauc,valid_incomplete right bundle branch block_rocauc,valid_incomplete right bundle branch block_prauc,valid_left anterior fascicular block_rocauc,valid_left anterior fascicular block_prauc,valid_left axis deviation_rocauc,valid_left axis deviation_prauc,valid_left ventricular hypertrophy_rocauc,valid_left ventricular hypertrophy_prauc,valid_myocardial infarction_rocauc,valid_myocardial infarction_prauc,valid_myocardial ischemia_rocauc,valid_myocardial ischemia_prauc,valid_sinus rhythm_rocauc,valid_sinus rhythm_prauc,valid_st depression_rocauc,valid_st depression_prauc,valid_t wave abnormal_rocauc,valid_t wave abnormal_prauc,valid_ventricular ectopics_rocauc,valid_ventricular ectopics_prauc,valid_mean_rocaucs,valid_mean_praucs
0,5.670994025024328,0.03556980383176857,0.6105923449523539,0.05619703973826031,0.5601615374223945,0.19627970038588816,0.5498007116981557,0.02068748196020879,0.5324079196753319,0.0811655465503802,0.43729472668581604,0.06287966503471433,0.40119423601569976,0.038288205012221355,0.648883850749401,0.11386373067863867,0.644151067396467,0.02865418808827344,0.6207837860361165,0.31221320244575956,0.8651588402458381,0.0925719941631275,0.7944370415004004,0.2753047696724008,0.6024359261761407,0.3442318374942702,0.6759234329761927,0.1800238642701663,0.6134494243288365,0.055090218075898686,0.5802872120486099,0.024769356264947216,0.518494300888584,0.020291364626800888,0.5735424905431235,0.0316721267320247,0.463560653067556,0.015648131186641424,0.4509776451840023,0.03319743456078879,0.5019135335857308,0.035213005673975825,0.5036343368889105,0.03374077866856084,0.43960867508622914,0.8003821215162867,0.4204482069839104,0.032312983183795996,0.6224088067979471,0.06715547413751112,0.47733180599347097,0.10679498607508416,0.6810729421076729,0.09421694461396186,0.568844440578265,0.12126331349271494,0.10256410256410256,0.5430291342775435,0.17468609968194942,0.5551544482682569,0.08744306679244658,0.3637470242334222,0.03917745209987607,0.6418246758288686,0.10829893235833042,0.6143491774917162,0.30363116395416656,0.7863736789358601,0.24550098210717466,0.5899184723287303,0.3180859463786039,0.652712421717964,0.16248509003316744,0.42675871070713634,0.8026493426031625,0.6248053507545354,0.07469232760619263,0.46880971673354477,0.1090393640010826,0.6476246799183287,0.09108311892517656,0.5762589575996588,0.20973107387844414
1,5.541617893624894,0.09083276085794978,0.5513916146297948,0.039559191448931254,0.5426528033512423,0.18727857405489032,0.53683237350694,0.021011944730788677,0.5897489140250497,0.08240261440213892,0.5217602293626303,0.07733990012839274,0.47041690369148526,0.04552697010609701,0.6828061433369753,0.12466809926979888,0.6893330200779753,0.036220285099806813,0.6261488425101411,0.31868298302062736,0.7927040606176956,0.05777256836830031,0.7766052150321279,0.22259457650759937,0.619296066436213,0.33537933168393597,0.6682005076543315,0.14000244727994665,0.6065072326173465,0.045137350998967755,0.5877060105402168,0.021460057015390468,0.5154975644876425,0.018776090683645025,0.5055741149872157,0.025979654879156884,0.566829831631953,0.01831644567167507,0.5079892093795393,0.03796138613171527,0.49828362968325046,0.03440986839419396,0.4653015297639801,0.02861746694660753,0.5758143094666279,0.8480695911576969,0.5975050179444242,0.047901113386768696,0.5279384550877764,0.04577734780940101,0.5483036120980094,0.12161222818982,0.6384737911047754,0.07040864979512018,0.5849854231932832,0.1174179514292851,0.6336996336996337,0.5144583812188659,0.16478460204944773,0.608584851876974,0.08208302560702398,0.4462835981850367,0.04663682855828193,0.6636839040298159,0.10989626435968763,0.6217520452746093,0.30742601648308165,0.773741857233965,0.20906941604302198,0.6188444229251445,0.3304786238605368,0.6597183008586335,0.1431927528445554,0.5831811664773034,0.8569180326867787,0.5705214783808814,0.05828222241180174,0.5526383907213159,0.1251677927121831,0.6233617997910214,0.06821820876518327,0.6030641830811305,0.20851281553179865
2,5.383927193518568,0.4454621784596596,0.34360275788473243,0.026562743960320392,0.36829472446030753,0.12278998614473148,0.6462093207249152,0.025483143763350632,0.4521918936476266,0.060904113742072996,0.6253844628691397,0.09216928732312032,0.6280391051583162,0.06690185681977036,0.821423591991827,0.17535417953561974,0.6581504070203066,0.026106242616753723,0.5447661901695974,0.2454058416470309,0.6123758574723458,0.03149451155708221,0.6306453747437466,0.13368370958958822,0.6383515052833781,0.310591296074675,0.6235611740593116,0.11650107476627011,0.4646011912546218,0.03203633642479001,0.5020437513032172,0.021445109859168393,0.5113366631793279,0.021228654878726928,0.47673505756235046,0.025170007373739475,0.5539324409787064,0.01641048397624082,0.5325553139595381,0.038329254110994,0.5451970992087133,0.038738000286968985,0.5857574251984807,0.03458000391546333,0.7749904483102341,0.9425375324833041,0.4108371060223224,0.03392727902331112,0.42814615371176457,0.039188517464632415,0.6009821390090142,0.13755268474479826,0.5881329195001794,0.05601718905793899,0.5603170797955394,0.1104272708130947,0.4610805860805861,0.3687008509404752,0.1172868442473283,0.42200851410903556,0.05651035686549563,0.6211467637902619,0.08174068507453001,0.8123891606491187,0.1628110684024619,0.5467730111720377,0.24399931970111077,0.624045929755831,0.12136215151010271,0.6310488046526468,0.3022557089187158,0.6239755074534955,0.11888621181831262,0.781509059375883,0.9475450589788832,0.44794182541267913,0.04430023556339214,0.6069717341946832,0.14095144383179353,0.5750009958663884,0.05703966796751092,0.5884593464477114,0.1995573960733031
3,5.086372475470853,0.4328677200213724,0.45446497202931296,0.03691176810415621,0.35682567171881047,0.1240744578992562,0.6296459953270328,0.026789314398273034,0.47562811648932946,0.07242746793202538,0.6796666109765827,0.129137176949938,0.6006865436171595,0.06190935640637723,0.8735008405688048,0.25777627347230986,0.5218930571606365,0.02089660035670503,0.4441112279106493,0.23703853670654595,0.8781996077551281,0.10571178378478531,0.5673466636718938,0.13163396289560136,0.6923101471871373,0.42037207562334344,0.7786058737213143,0.22924115488360178,0.45537287424570005,0.03197222914490335,0.4673624995059699,0.01776393367070807,0.5446173114493454,0.022161806464767682,0.5711964118290679,0.032026232477719276,0.39537722467170616,0.012671285771479912,0.6661073702156554,0.06399824757188602,0.5121964522000075,0.03380716047671053,0.5853473325350333,0.03658705716894691,0.8108655394116322,0.9546013439535566,0.4474467812625373,0.04539521852981841,0.5439966295169915,0.05643483305839027,0.7315980979439584,0.22282906289167573,0.8094461494649552,0.1542565898741498,0.5959160000917828,0.13609326655644735,0.45306776556776557,0.35274042306482484,0.11467006701702188,0.44324052149958176,0.06594762923608213,0.5741795023093984,0.06146689174431198,0.8579718922276575,0.23180984371269986,0.4643761545905053,0.24824793119375974,0.5583901808491254,0.12056520079879722,0.683526820448808,0.4015857883080439,0.7884833908466659,0.24796635463410202,0.816357148009883,0.9580356003714997,0.5321301777834275,0.05464251720163304,0.7251977997970149,0.22251444433472117,0.8122143267892145,0.17493726715363153,0.6340673615180089,0.24186579464219202
4,4.990496785629252,0.25356842989084805,0.3250877470882973,0.02563508838235374,0.3194078380117028,0.11072512323143344,0.5346984896531736,0.018405292011548516,0.37388181165964096,0.05180322631340495,0.6113365972419319,0.08778288071530854,0.5286283127704051,0.05586670824677263,0.8918414491974404,0.291741542542973,0.4159777694525228,0.016458288369537492,0.2809442357819085,0.17085189429735637,0.8408065580242107,0.08393679049701958,0.4473613183815461,0.09812245406109664,0.5716777841220656,0.29478061887883367,0.6613843196193778,0.13407891615061157,0.3765221445300624,0.027132048377533597,0.32317539362271913,0.011938637078384582,0.47759259884230354,0.020158259238979556,0.41203434073016065,0.02095091180425258,0.2840136866158739,0.010985282950666931,0.508138327253334,0.03774016528804033,0.5348422907382376,0.03606600769269803,0.5609176443371812,0.03471501801785892,0.8061082091749006,0.9547553192355339,0.37550020120333555,0.031323613450481375,0.327036165497704,0.03119763860011744,0.5801641554332497,0.14796239905628814,0.8468742554391754,0.18186602185199044,0.5083059094008638,0.11488385178234908,0.2742673992673993,0.3330978632944287,0.1083922043794685,0.35190069369598054,0.048268394452645406,0.569483386574969,0.06810390913839538,0.8772226104511218,0.2678214920254341,0.2848271413072164,0.16664541993125692,0.41915998542274047,0.08562007715286726,0.567102059322366,0.28690018406524365,0.6697317206362485,0.1405629836681651,0.811885696766398,0.9577425248769936,0.3743439809686382,0.03684409512375988,0.5917907207628255,0.15279245589740398,0.8391670675667255,0.20707781529170166,0.5574760772308048,0.2105642963336113
5,4.936096988573446,0.42790626669719867,0.3792212393807265,0.028077046825191045,0.3845729350866196,0.1278975008159673,0.5725137742861477,0.02106502667500981,0.49056165517930633,0.06550642982321192,0.7273330035541009,0.15614534517915213,0.5840040971667251,0.06794713494249019,0.9179602547341423,0.43974356093175127,0.47716987541749745,0.017852019760447205,0.3850860664586155,0.2080420837491183,0.9228388677534518,0.17297276146841292,0.4898136029876698,0.11119566406714365,0.6654683200689465,0.38180636218715025,0.7107451414556271,0.15953551265620863,0.44926357570003617,0.03213503132850218,0.5020929839552661,0.01718167108039403,0.5035631164558639,0.022658819983281786,0.5659814051362153,0.033722526575736766,0.32812453388541185,0.013559692505436734,0.6505675334383256,0.06257810376523291,0.5364268926428206,0.037622431733821834,0.5861168865970809,0.03828509250321291,0.8103447134797588,0.9542970824209136,0.4215749304892549,0.03305948639964191,0.4522834081657612,0.040457630708771154,0.7355265091092902,0.20934440057219195,0.861754196518956,0.19892562834384264,0.5811888276578314,0.1404466941154706,0.45947802197802196,0.380387456491839,0.1172776553338439,0.469316332857553,0.06106849802511215,0.6145817649093536,0.07289581127349748,0.8824489478996816,0.33697065741035725,0.4022964255344104,0.21300710367672823,0.4632348419278426,0.10059105868814869,0.6576985295352391,0.375766183551676,0.7189747522279153,0.1642555652068532,0.8138368140092698,0.9555937582225356,0.4797337788512176,0.04752210556213492,0.7341783668830181,0.20967816977464368,0.8540989349847352,0.22509430495516025,0.622565578842673,0.23997673930672425
6,4.879636310309947,0.5231661705213343,0.3268953787922999,0.027665430231229988,0.45665885237150183,0.15187909127301716,0.5783199109558361,0.02162662728233265,0.6683389669585205,0.11235772224793711,0.7570728084106788,0.2606402737689851,0.5634559522591008,0.06823707191837766,0.9476791285213856,0.583179566795978,0.5401921440635993,0.01980547044863683,0.3623322454566428,0.20757418032719538,0.8707450849969041,0.08836634005053196,0.6000558580324102,0.13402304313221175,0.7181358824117686,0.43908670136388916,0.8245855385693474,0.3007668192911608,0.4296741118665197,0.030276817074759765,0.6247589473956778,0.02743457126330776,0.5247218253655768,0.021035112992424256,0.5588787228395262,0.03345466762057557,0.3018804181159723,0.010515685932780195,0.7046193793421704,0.07296760894504498,0.5229575095360827,0.035141595116854066,0.6353678320227519,0.0496445142439302,0.8182250503975981,0.956737620554866,0.5151758298651301,0.053765459308321537,0.6103271438113068,0.06197421680969371,0.7519859663728486,0.238827708268676,0.8855113097682367,0.24311218295188203,0.6191750691730535,0.16346523458517692,0.5544871794871795,0.45352927510726704,0.13787664744102987,0.6470548090567483,0.09549808734795227,0.6096943862290679,0.0959110246009151,0.9319007686932215,0.5501547037800459,0.3750250711081137,0.20321179766402192,0.5858344342201167,0.12085801318873923,0.7108406893888084,0.43726120955059056,0.8359696515505363,0.32494110727297476,0.8267499564164066,0.9592880746136235,0.6331083044291499,0.06667013714951767,0.7452485184027788,0.2180876190565397,0.8671769588181161,0.22699165066333707,0.6851777352850276,0.28639583936077395
7,4.802420468086887,0.3112739485535455,0.3757986444012772,0.026876860907573304,0.3680432900658547,0.11941625709555409,0.5728687688134638,0.021047793816753237,0.7579750448845851,0.19435863741447165,0.8988612300396339,0.4044850175998903,0.7925313561690754,0.24374962172319833,0.9247937662753974,0.46216111019960665,0.5494593170186556,0.02045448188849947,0.4869732960218334,0.2616326451538121,0.8840833934949722,0.10074380723047738,0.537059113887995,0.11865586222704157,0.7619942363147646,0.5125542161182444,0.8895481362737065,0.4509077207195032,0.41573971069530613,0.029379704741043764,0.5303404310122778,0.018600335962515938,0.5186277322173849,0.019914825341222103,0.4658185950547362,0.023245016402952637,0.449614318145207,0.015145553528876404,0.6169402415759679,0.06468387839586719,0.5159894428678501,0.03519160695804664,0.5919620191419112,0.047711196900330724,0.8557857254513453,0.9665938987202009,0.44427145577137955,0.03680833102147138,0.4443468479667575,0.04030245883117773,0.7470604522598445,0.28176862691800275,0.9258413286424475,0.39960493755473064,0.6277818420947552,0.189076707821964,0.37934981684981683,0.3722485264276742,0.11240278954242001,0.7329245506789233,0.16226138916756735,0.7979917390685087,0.2418982008204906,0.9214442115071045,0.4127415347631807,0.4905465794798112,0.26954408287123394,0.5107379168185131,0.10444129822263129,0.7468144594768571,0.510908630842554,0.8930100967850629,0.4612223534091699,0.8577882378401775,0.967984494512615,0.47253799916465394,0.045053042565119196,0.7387864591831373,0.2621656629730136,0.9081739691761479,0.3553106144344742,0.7035837288005476,0.32549450784370576
8,4.650642880792154,0.4571406762842531,0.5941454142246159,0.042632251738277636,0.36326004228146147,0.11873455378837598,0.5931315858250009,0.022522655117943016,0.697526261497771,0.1343342890881679,0.8191778197801785,0.2339183480520532,0.7957281156379298,0.1782607418049836,0.9578382117307178,0.581561529836774,0.5944918913427225,0.023517918207046136,0.660146919661545,0.40047500881847165,0.9511268928383766,0.3244924486862862,0.5952942172328538,0.1364385548366229,0.731082399046053,0.437237763312937,0.8503499837982661,0.3663871046334984,0.41846376727905144,0.030220559205227933,0.6014642369926992,0.02308443089608631,0.6098546067244389,0.03518918424003559,0.5306345988966819,0.030334551978434623,0.6146231705934645,0.022381896984822007,0.6858472351290634,0.08028756030895426,0.525779809200051,0.03659641186922282,0.6371780026501146,0.058463172884242735,0.8558232013691094,0.9654523815675277,0.5065323561062329,0.054799753574210075,0.46685644672070015,0.04359539252029129,0.7822597225460016,0.29742316351280346,0.9316682365659089,0.47855877308500755,0.6680878902181158,0.1983423230980117,0.5629578754578755,0.36866631167982106,0.1112650758385704,0.6939273512631758,0.13247197768308822,0.7588794839969886,0.16211972696546212,0.952609674664182,0.5206285954747364,0.6680438671084656,0.40256768451844216,0.5796775350765306,0.11946307920978595,0.7229230454909292,0.4275775070632566,0.8665371164325467,0.4220964828279688,0.8564007015455645,0.9668454647820741,0.4879011022935697,0.053642106342463615,0.7745527553698393,0.29749538809417075,0.9039198322450301,0.38713004157862635,0.7195032314305537,0.3336085941982205
9,4.587484833393631,0.41470116784978245,0.4136985501930019,0.028078447039867317,0.3949358676148069,0.1248024130679686,0.641303844693989,0.02567516233605096,0.7696486509639031,0.32027096551098555,0.8488512410501673,0.2774376105456777,0.7962424143856515,0.24790993526155158,0.9402092168119016,0.4594917622320115,0.6025211764855289,0.02442749374886908,0.6364410054541845,0.3884974883956637,0.9603166394925333,0.32012375139505433,0.6327512843567993,0.16574159274939898,0.8293993209946959,0.6039906355544902,0.888779805263061,0.4118536668037813,0.44872034389112603,0.03268185249620003,0.6532477877674066,0.03221238867940235,0.5748784118734508,0.0354334741014933,0.5639809487619655,0.03280101652080662,0.5153409497700004,0.017976554487444337,0.7703934773753517,0.12935461399459175,0.5207626446071575,0.03613180878384678,0.6442058691926865,0.05422793278202169,0.8502317375954915,0.9616076546371056,0.5564774424658606,0.10985776302859472,0.6019705499343508,0.06594030928025811,0.8033629505434282,0.34213069433244714,0.9543786847274739,0.6795103360699484,0.6851173390871529,0.22800643553213584,0.6293498168498168,0.3893894568906853,0.11538195585655553,0.7549451326844412,0.30588542996502277,0.764818808879484,0.23125268342558816,0.9324186660455005,0.3946657655817142,0.6439887986394159,0.3995511849827921,0.6133176931486881,0.13797503438483144,0.8177063100682336,0.5882456853620593,0.8961123310908944,0.4421411955791064,0.8470599109091237,0.9619810085663503,0.6278283727096083,0.08223710588525512,0.7861909331504441,0.2942176539412958,0.9227452818914721,0.49571528847920754,0.7497101413423327,0.3707708326674816
10,4.5053281673956675,0.38768032974582095,0.28614696490950164,0.02322100505101879,0.32925917093759816,0.11124904867853147,0.5282752962975886,0.020405380607522287,0.7319902164097329,0.24829512161480444,0.8806554789984642,0.49541275378999766,0.7745710670939346,0.2818441182191294,0.9100882461762207,0.39838092633840305,0.3586506102129713,0.014403907757847532,0.4448931091168314,0.2586173404176979,0.8907520970950266,0.10482974706748689,0.43178657996223424,0.09689831648063134,0.7054404221931547,0.4892785645496666,0.8169831383417328,0.313357029251911,0.36937555091704866,0.026961659857591705,0.47688927321021424,0.015967747586571136,0.5692821082024957,0.05100632054134148,0.4090047747439817,0.02068589360615008,0.4030888108633785,0.013395325739718444,0.6773160219595075,0.08110377983129805,0.5459429564667773,0.040757658277916727,0.6480838947709431,0.06905589575625086,0.8276300846760851,0.9594327355278172,0.5265122570158662,0.06255574418102863,0.5487682551030967,0.0520129677792299,0.7077358371662705,0.2727515191127143,0.9458565994447539,0.6555713548374907,0.6055761085494389,0.19913276394076032,0.4826007326007326,0.3366023647058098,0.10526019137637477,0.7197609724227758,0.2479675417385251,0.7651575884591124,0.28994528817712506,0.9119834614488702,0.3884479142563025,0.4558711843532827,0.2605736042765715,0.4075255102040816,0.08340644100086782,0.6982667323440674,0.4808411012352454,0.8313732324816712,0.36644149255735986,0.8274502996747762,0.9605590481906333,0.5557440254598942,0.057505637551709704,0.6844926618418542,0.24424261381284873,0.921961866999235,0.4923555949818567,0.676349158366286,0.33146220576295166
11,4.4258355125290105,0.4985115640027479,0.25142529617247616,0.022297369853899407,0.29937012176661276,0.10684545170527873,0.5711336752010152,0.02542285381701112,0.829970767017772,0.3296710421627121,0.8720172676163505,0.6101830864444066,0.7497967655708082,0.3959003172728848,0.8589045279044701,0.32089940242864035,0.36219425853726683,0.014176194675867808,0.43560386165657783,0.2747165933161513,0.9471789824526302,0.3966818427303889,0.4863802927150471,0.1141498854626723,0.7903901115150456,0.5871135993076111,0.8786166748773014,0.42072025945973607,0.384695927757048,0.028308158591530273,0.5806516018158502,0.02628061016328289,0.6303008485857529,0.05317548862601533,0.44224765272783867,0.021804298091013617,0.3895476227410223,0.016626523474143937,0.7329718248251771,0.0989934887622787,0.5415955775638164,0.041449837689981985,0.6060580925844132,0.05452436575718948,0.8557147932429662,0.9664727219285366,0.5816899198646263,0.16659908054688216,0.5356728266230528,0.05377130433101243,0.7596197179680866,0.29986555568985,0.9490889822353837,0.5913331967645862,0.6278014612130156,0.23223009727129093,0.5444139194139194,0.30819875699779814,0.10156391713124753,0.8188958290852951,0.32572775573306123,0.7454198628603984,0.39912437275932544,0.8541765665036106,0.2686793560388837,0.43845614755300116,0.2455229325739068,0.4621717269497085,0.09530042513016818,0.7742713446888065,0.5573511442071213,0.8810165336307761,0.42102813181397664,0.8525777441132092,0.9662529254685487,0.5423302522381827,0.058338875827531986,0.7285033586557633,0.2576581146676258,0.9209047165253558,0.4231943541629827,0.6939102366501588,0.34331185879286497
12,4.362105722909993,0.42981451797572706,0.27838295247067457,0.0227797236102973,0.2927893037545538,0.1061749679786001,0.533931174501352,0.02041146434978343,0.801937488176526,0.2972133371384993,0.8900414387902235,0.6290770182090016,0.769805761031742,0.3702327523795176,0.911748486573808,0.35941127202118583,0.25913541521151084,0.011511163153537415,0.4744193244996846,0.25495459976153667,0.9640170309262369,0.4159764822788612,0.34469784229977435,0.0763212742471219,0.8182415316245757,0.6489491464263232,0.8990326379320792,0.4656913096939331,0.3585640745188021,0.026758948715647782,0.5706013265899932,0.022708303461258322,0.5784894948608627,0.042195700440744756,0.4413076936296647,0.0248811207346105,0.47447258202125187,0.021185152806162677,0.7659561972720035,0.11407826830781416,0.5363479739516716,0.04238505246243773,0.5875723296432883,0.07250501072631149,0.8413811682498178,0.9644112017502099,0.6017354470507476,0.1982792882285192,0.5342245134100339,0.05062233544117599,0.7655146586839677,0.326139601597121,0.9535916492537331,0.583514522648308,0.6249207498818683,0.2372449622526354,0.4391025641025641,0.30900385071638126,0.10374851708180749,0.7860536730099414,0.2774206232762583,0.7592060553034774,0.4210378697035366,0.8964345057846107,0.30124421581838884,0.47613289153446914,0.256051811778224,0.3470649029701166,0.07247854474645656,0.7967055879899917,0.6026717510984078,0.9035489792835815,0.49788070369603993,0.8402954366474898,0.9647643598570961,0.5405063377340331,0.05522161977234942,0.7280799661507232,0.27792117398042054,0.9286224256853859,0.4273694962818715,0.6926378844008502,0.35481755725757136
13,4.280967483738162,0.5353789787039157,0.272757634621958,0.024860356906191663,0.2656874907425144,0.10272704198663343,0.5468322168393452,0.022636981211304145,0.721358637650225,0.2510298998365096,0.8634349140594649,0.3812060235854921,0.6438514080750501,0.21564403094582982,0.9352196687024137,0.4727091637631185,0.2902554830270627,0.012309822269780415,0.5000261109711447,0.29027161001626095,0.9748542375875499,0.6383127404202997,0.4242506648851608,0.09126679903884524,0.7150846248818347,0.48099766536272587,0.850610528756102,0.3727626623764189,0.3500510367855487,0.026284853712395022,0.585726653501617,0.027826940455815713,0.5333006473450603,0.032926862520422394,0.39437346880710644,0.019594517125078405,0.31730284471597586,0.014304614283085843,0.7388501600114148,0.10984502735509513,0.5473986370822115,0.04396739216904927,0.5952668411730153,0.07293265297500595,0.8526484876660381,0.9658376644165743,0.6060869623273308,0.2516992117704777,0.42537874257331265,0.036725048934732205,0.7626256346092299,0.36138718632267847,0.9105515765621639,0.5602461893228239,0.6009148197676866,0.22616588304164018,0.5576923076923077,0.2823202159526154,0.09787276297640667,0.7080284802356984,0.24151135160711823,0.6909028017986856,0.2610038658292492,0.9259166084323317,0.3936284198075436,0.5063273025833505,0.28109441577244787,0.40727894952623905,0.08217344351154421,0.6976588432194614,0.4401245919447986,0.8570323120359721,0.394612791749714,0.8493465466765255,0.9662511742087856,0.45493557847712784,0.04195395380055078,0.7303446044418879,0.302450105596674,0.8771540079281179,0.41900928422673556,0.6656038542756678,0.326807180085964
14,4.231997577736973,0.5845355316388062,0.38300040851376027,0.04111522727213869,0.307101908573181,0.10920224251119022,0.5661258311393935,0.02363842183815305,0.751982015826501,0.3151473935513909,0.9063563688991679,0.7688689359344647,0.8048116612273981,0.4971960930881987,0.9309803264037795,0.5788680235278146,0.32488443417192636,0.013673416553428987,0.5008437399147782,0.3233314830158507,0.9617280720966265,0.44919125278620964,0.5128062833117485,0.12617863846458813,0.7456743000988139,0.5997921540662128,0.8558133270458311,0.459396613418404,0.3782619809066375,0.029469922487121637,0.6669661511036973,0.03681219994219977,0.6380048672748886,0.04818756044740283,0.4847229197258699,0.027296501195498413,0.41741493595212664,0.020228059570435122,0.7532436687975902,0.1107706662855404,0.5758927332167436,0.04923851568996096,0.7026378477349096,0.10705266523791983,0.8279165135621814,0.9606153382130785,0.7082137392441188,0.33103292878729573,0.5017422225567022,0.04828936673089078,0.7762439355001727,0.39147239584065846,0.9415922509238162,0.6276598909955062,0.6509600939893214,0.2728356118250598,0.6396520146520146,0.31262224945158645,0.10292244926757727,0.7240097042533093,0.3177248370237836,0.8035994058640406,0.4453158033167834,0.9324124543831043,0.5755285970937709,0.5059666305017154,0.31842643391009257,0.4814618258017493,0.09775451004989213,0.7253793709523035,0.5665084129791329,0.8572885077904422,0.47387427110746705,0.8256866670273584,0.9613464047932843,0.5346997748197649,0.05757849915053469,0.7446497954939533,0.31570795792659867,0.9129776200733979,0.47677221085869737,0.6967295005343939,0.3924550322898011
15,4.130046860242325,0.5540035111823525,0.3924301566525215,0.04133686558616778,0.31816447896807865,0.1109655471846397,0.5621952548234036,0.026007611845235114,0.7575299468523682,0.27208018941377166,0.8866114663870085,0.6207204983270463,0.7460301623513387,0.373699151556856,0.9667182541787444,0.6661589615445692,0.28099227867873966,0.011849664160451351,0.5003354527783972,0.2676011294192226,0.9818336636590355,0.7279740106086066,0.34206505784014973,0.08151661853248873,0.7649939766645065,0.6320819857665685,0.8011683689464131,0.2705952536614258,0.3611088654548048,0.0273307646136071,0.6048992791930887,0.02500391323934765,0.5229979988425535,0.03194208710008982,0.4232071557190949,0.02217381456310495,0.5315328383320705,0.025774010053690583,0.6989946698505212,0.09800241124174204,0.5718788235972403,0.04827817496291649,0.7025752790173747,0.23836198561842709,0.8591676935663636,0.9682790687625693,0.6570174291251387,0.27906037519216775,0.40479554687699487,0.03551192787572893,0.7586822534689597,0.38747869106024985,0.9297119823258232,0.6292907313703692,0.6279860897750281,0.26611828627927153,0.5723443223443223,0.335006157445575,0.10691758514214045,0.7364962319033569,0.24882757547662612,0.7572751134352046,0.3578107225518156,0.9588733597328984,0.6316964578029411,0.4943638389584494,0.25732673712586424,0.3233219068877551,0.07239362829694694,0.7310339712624055,0.5456176415391735,0.8062648866580686,0.29284813472780485,0.8537999633296663,0.9676519168745877,0.4362594657417328,0.04048241804404196,0.7129166516870712,0.30779127816208185,0.8797126184953328,0.45011589751962794,0.6687770137947929,0.356623332771971
16,4.0829098311628735,0.5560644225631631,0.523199579814418,0.05574038689228996,0.3463523877905873,0.1198375412664675,0.6346819683431761,0.025668220625776804,0.8668592926260784,0.42578783905266154,0.9251196498100164,0.7913843481859822,0.8617277583783761,0.5503110623237538,0.9517763779884452,0.7163990649041968,0.4486276557916259,0.018186977742938985,0.5629086656569782,0.32660033583173553,0.9799436418386118,0.718899452693671,0.48477030236407076,0.12907343623442846,0.8348372965423088,0.7111367624264726,0.8962258851020445,0.4781676879549068,0.39007695430127165,0.029625967446934666,0.557683973391881,0.020372458555896946,0.6316470363245701,0.0463230376227213,0.4372494954104791,0.02940811985380748,0.7926077209457726,0.06228897542468974,0.6965249102870114,0.1001991080810954,0.5804975988076249,0.06049932314136263,0.729216380325596,0.16134603857745275,0.8540982128900103,0.9676568100429191,0.694068583328225,0.3628564689749889,0.434119824165073,0.04266460042541252,0.7325500495156065,0.3645083519515456,0.9504412640833421,0.6559586026178266,0.6845312486855076,0.3065731145712283,0.5872252747252747,0.3645923236493196,0.11696310812452979,0.8612175259147674,0.3903332378272931,0.8542820518037724,0.49533149841743956,0.9452892305303208,0.6807030439435464,0.5545825880421077,0.29750192846124,0.44491333363702623,0.09921614957367467,0.7998522258481622,0.6455954784515743,0.8875039213635887,0.44967478551426415,0.846966732192345,0.9663142589491976,0.4578161603137995,0.04671927441043908,0.6946457855714692,0.2857630171963789,0.9152522810447302,0.4878628283308447,0.7189095133259507,0.4134982174333685
17,3.960478720615114,0.5386611709029845,0.33602757884732426,0.03124825848785898,0.2919341184115479,0.10601788916763354,0.5245024557645485,0.025790651411725814,0.7221822653241149,0.22608272497608384,0.9481301383328267,0.8483661212162775,0.8584144958801969,0.5253710034021596,0.9420538781859216,0.70106646310682,0.27956167532352083,0.012047244285346679,0.45122282359505117,0.25307582276986085,0.9720967164814048,0.5930491031408722,0.38022618453703766,0.1193727501059433,0.6868410074919344,0.577452125805209,0.7272025796321812,0.22829629479294836,0.3421616498893495,0.02685642508654287,0.6216010731014594,0.029739034030763493,0.5174366935529232,0.03063034245179444,0.40942880657178915,0.020099628921402404,0.5372541152324757,0.022984382428722146,0.7055297919968563,0.10796681448505666,0.5597087962577415,0.052306835073781976,0.7055964836380746,0.22506478876046634,0.869513320597747,0.9706051358135999,0.6580544760307042,0.28739363587852135,0.4746396687573158,0.04285244962364995,0.7391006509886763,0.4207509873042247,0.9093645296595252,0.60653302426267,0.6219148451570096,0.2727315360303822,0.543040293040293,0.31880148765529814,0.10384745705690888,0.6990408102968286,0.2081777430024812,0.8584562638614768,0.46651025657613,0.9300295053963817,0.6534487088397523,0.4521845585432367,0.2404033694808521,0.35657229409620994,0.09307918437798199,0.6556504021807882,0.5054037501352787,0.7306650632646657,0.24112089854761826,0.8581305193360865,0.9682562287942633,0.4723019231118456,0.044934713220917535,0.683373755195615,0.2920858783742767,0.8532205297600627,0.4159149142950952,0.6557022593915413,0.352765258558463
18,3.9010556121972053,0.4633997404778261,0.3863384661558855,0.03971285903882907,0.329650841307259,0.11346662258166336,0.5941525956615894,0.025574562589556985,0.7674754517905649,0.2846146468538113,0.8668710928877054,0.6881798593072267,0.7582818029895636,0.4215105944499091,0.9009116193262017,0.4617161384726587,0.3317367893019062,0.014005226875001213,0.4082173301556137,0.2177640179831714,0.9702736160344512,0.4137234002175337,0.5336637482029563,0.1567447502387827,0.7965945140701998,0.6484989429490834,0.8790661742042051,0.47846244706937724,0.37164443749989384,0.03169404672604727,0.632743154787458,0.02867956842252045,0.5919041869313544,0.057244634386378584,0.4610504150332352,0.02382350192643111,0.5293715582098814,0.021474794249382874,0.696186993312502,0.10279173596814858,0.5447749242487332,0.04283076313847045,0.702284457971728,0.13532681762217108,0.8724095837655785,0.9711986547738378,0.6954282232137059,0.372228645286147,0.43680881916176034,0.03954381797550932,0.7489243952281032,0.4210678348807747,0.914736820107493,0.5603837241264328,0.6431346927522896,0.2604716387734176,0.5776098901098901,0.3473033677835046,0.10953381277301089,0.7388956626315505,0.24194986412368835,0.7691049301076363,0.37093511557956416,0.8930149856355307,0.45262277074437246,0.4175098964900449,0.21288310502264968,0.49635426157069973,0.11051037270400692,0.753298610139322,0.5715060133205485,0.8696986068992761,0.45078777295916056,0.859971550433732,0.9687501908535986,0.4477205041131712,0.0412653153124265,0.6989084714452038,0.2810253024837062,0.8723687422565003,0.4145014699419776,0.6803457991255143,0.3521892588182258
19,3.8047066097013476,0.6729257308602397,0.4422938464488482,0.04881842106410307,0.3285903949759164,0.11266622499246708,0.602501554213753,0.026353071566423608,0.8762109022247764,0.4507883272485024,0.9500431430409872,0.8349849207459208,0.8730118210592206,0.44630849810251,0.961282269360056,0.7500564156277072,0.45272373417319633,0.017854512779785368,0.45510143702043415,0.22580653255853025,0.985676798157026,0.8440536336391999,0.6389942938539247,0.19396387781524316,0.7843591455457442,0.6597890828406301,0.8736761997845038,0.4336513463853907,0.38904263142609175,0.033999662176326585,0.7303570236085046,0.048242613485592944,0.6079065718210532,0.045864723736135884,0.47305554017334583,0.02435823006908812,0.7464187483965657,0.04714782111335922,0.7937164317705112,0.13460365484599668,0.5549946723210529,0.04868322319109544,0.6848793432260514,0.08126260973929603,0.8643541494529855,0.9700765018041243,0.7572047788675196,0.3832898617624934,0.56197092622432,0.05637138287261184,0.789182611601465,0.4146587091768371,0.9511066904154758,0.6475314017570708,0.6972559868908973,0.3069686638883247,0.6181318681318682,0.35189359440628454,0.1102569713888371,0.8634971099468596,0.40665926466290436,0.8665127067776264,0.3618927659369818,0.9493011879804334,0.6545097606196556,0.45673753042254345,0.21618962046288448,0.6043908299927114,0.139972409938191,0.7390764675260704,0.57015841723332,0.8610332647820884,0.41923834770323215,0.8525240160628085,0.9674913449489718,0.562489785170792,0.06553117862910689,0.7336227852091936,0.2921455355057126,0.909612102381193,0.48434841989308575,0.7292242817215504,0.39069950307690693
20,3.738239523764103,0.6865124799633616,0.4063813184156335,0.03804077224306754,0.31512997835540146,0.11041373921576239,0.5926108441036371,0.025230462744312895,0.8376282735407602,0.4099978113948598,0.9248182188432432,0.750344886328486,0.8618202718715677,0.5138095576766023,0.9658451694759802,0.7653584489562899,0.3453037095360858,0.01505133879109245,0.4621147183827994,0.24124190410153545,0.9798544133406518,0.8285271687300257,0.563086431351432,0.20602964514486127,0.7847356995861805,0.6736863429893818,0.853457884712149,0.42744615477804254,0.41247174294444044,0.03716799193647864,0.7099355239648878,0.048603354424246584,0.5867712993274061,0.04043281583935563,0.49584226827549727,0.025755192916955327,0.612264257885913,0.028682343564159617,0.7612382247003358,0.1280069058450734,0.561087159688724,0.058648199907358645,0.6831993525784281,0.09828983944272737,0.8502662495457618,0.9656578909999144,0.7067787619106002,0.3318064606879213,0.5062921058396171,0.04935380935433028,0.8006740593392905,0.4800588218217977,0.9449935287407267,0.6035572651636887,0.6740231333175828,0.30389227403839725,0.6474358974358975,0.33900140418541824,0.10863435668042853,0.8047888742317119,0.35741352777756685,0.842800170915824,0.47008275219597506,0.9565206926003571,0.6582189526703339,0.4724402545230625,0.23733701972632568,0.531109352223032,0.1311900017724923,0.7348819765912309,0.5494295348208298,0.8425616089790512,0.42819710971243585,0.8388962530132795,0.9628107424728334,0.5137741296965515,0.06365754776253987,0.7365635793950824,0.3258556868415039,0.9018280021286006,0.46036500380510814,0.7095971915402668,0.39609935301986443
21,3.6709301792185833,0.5337760476299519,0.37699909126530884,0.05475699117287294,0.3085696408334495,0.11461582969372786,0.5521017669968318,0.02637053521611632,0.7699223309287808,0.3861490607036767,0.9414626765727918,0.7957411030402639,0.8037794960573504,0.4192857854980899,0.9600341022795779,0.7452411782641939,0.3309297334366229,0.014353459859684848,0.38896747921177366,0.23587142028431088,0.983015039959045,0.6402637672634736,0.5321381058205858,0.25122616481426907,0.7380897600849965,0.624646186333177,0.7843487956711073,0.33054246902490125,0.3498978415091264,0.03006847387321671,0.47767052214549427,0.018967549985948046,0.5678856102905241,0.05272317005538159,0.3989298119317997,0.021091364491402757,0.4601419822324577,0.016191684716550706,0.7554506133297512,0.14073156248661023,0.5571147112981671,0.04430171586918403,0.7093575015981779,0.16798706913683062,0.860028624617577,0.9685694075131477,0.6639641791298426,0.37658205842204695,0.41140944783478717,0.03817383775542944,0.7494018046304788,0.48175278216267636,0.9162151386143501,0.4919661650048156,0.6287625310877214,0.28800656894776916,0.5737179487179487,0.3356681599414477,0.11452089817123581,0.7401024522797921,0.30970845591430274,0.7982816855555781,0.3416248465831736,0.9465432098765433,0.6286659099096816,0.3921300178869894,0.2069270708192919,0.4855998314504373,0.13969451066787464,0.676133494914666,0.500910708384479,0.7677321156773212,0.28790650088002284,0.8488239192771736,0.9663835826409928,0.416879664772005,0.04071057941751779,0.6810031996415958,0.2923013347019597,0.8527956267676627,0.3812458437140851,0.6618077815034344,0.3508833534837181
22,3.5629684571482447,0.6564384398137547,0.3668950453116794,0.03686593649753968,0.2738784922710583,0.10585393107495941,0.6509492275931513,0.032098001317235295,0.7496898234242209,0.29167546796849547,0.9379614980230021,0.7935854690420341,0.7843225059740097,0.49070102731451876,0.9426393285696995,0.5857566894335354,0.33736236871848924,0.014521276552066642,0.38625996616996294,0.22348004911988192,0.9820637199631189,0.84496043243979,0.5687121588976549,0.2784183836809435,0.8372227759456822,0.7006927088961473,0.8938809146208135,0.4536892434151875,0.35959262284919435,0.031740989631863586,0.6605699948620873,0.03569118540303043,0.5660903808198872,0.06803550568263055,0.39123112205051436,0.020377721035764226,0.5264436128131544,0.028345927895621858,0.7887977139603402,0.14991805380392637,0.5580830890145894,0.07142279444876246,0.7039417057138,0.1545149406987095,0.854793324170749,0.9670907621928436,0.6652134303074739,0.3672992317434294,0.4241584879593929,0.03828439476634918,0.8097182481700713,0.5526800530839338,0.9102568810112401,0.5804796541199488,0.6511818630455782,0.3045453781253519,0.6371336996336996,0.31560866195315407,0.10660267748285744,0.7207130878418024,0.24844695569225744,0.782436364376259,0.412541881557512,0.9254600512462148,0.5001503527615488,0.38496847784652377,0.200033934660085,0.5121173469387755,0.14999892766164302,0.7769850154771034,0.5595395467313324,0.8772154251920016,0.41651509844089873,0.8423964664225986,0.9644046403047339,0.4286289883233153,0.04260885066795765,0.731714615199542,0.3320627082731086,0.8613539492996761,0.4070688743167425,0.6799665375097472,0.36166453737922316
23,3.493625406627118,0.7378826043813449,0.6617586100527733,0.0840318130693154,0.33977154806008714,0.11773944167318146,0.7211135220513201,0.03635099763084547,0.9165466175048096,0.55305948448864,0.9654458125418094,0.7864417381661878,0.897442518610959,0.3966202875864487,0.9822519853993765,0.8479632168877276,0.6057709891672911,0.031601866399736465,0.5712132254401621,0.33990591015974536,0.9839897937019102,0.8281079015497171,0.7924611933353826,0.3219713522369377,0.8645172019060593,0.7384851949224909,0.9178660011222664,0.5020903712021165,0.40709623618567536,0.03708318711721105,0.6661474240249889,0.028246351953693124,0.6925907801764168,0.058250013926552296,0.3957624027817825,0.019794556246556662,0.618256627030768,0.03397062148024957,0.7140050337515985,0.11920250638679193,0.5760318863542376,0.11224036566273891,0.7925882002808183,0.12276683636167193,0.8497333444312938,0.9666317303337578,0.8625726592890087,0.4621892354295613,0.4652777087166228,0.04119542180356438,0.7713390051027091,0.486047886657644,0.9514317292182375,0.5913991839772805,0.7301146944707064,0.3332072105119371,0.6401098901098901,0.3648229965686889,0.123788566936172,0.8937758783556035,0.4763449739518989,0.8501393777850124,0.2632813966871763,0.964946812640733,0.6997050875146532,0.553378588393983,0.2865989433969337,0.7287564914358601,0.1958401292233691,0.7977156579028385,0.5982613733967128,0.8961832061068702,0.4611703583551648,0.835793927753431,0.9628488083248663,0.4628151842301196,0.04595491835737428,0.7079230537357267,0.274377845084968,0.9081177920978257,0.4334624684733491,0.7470307472505576,0.4018029058085532
24,3.4195095801952187,0.5777421570872453,0.6322140612103678,0.07914157618247245,0.2916560354896705,0.1057646510099547,0.7146527640792539,0.03969462271507824,0.8863864071986665,0.4705912347486872,0.9757176975706375,0.8921206855684063,0.9478857468200945,0.6786651011920063,0.9577685817271491,0.7525729224606004,0.40778735887634454,0.016893540558562174,0.5627417678044486,0.39465846201673505,0.9808082119059657,0.820695274502557,0.630618348598756,0.3303300611853022,0.8404770591809915,0.6811756963029819,0.8746092484239534,0.42797203745462337,0.4039561576178984,0.03652677542914119,0.6682957734194104,0.04010360897028369,0.6008503356719752,0.10240784645958209,0.4456508870655136,0.021237539493391897,0.5264745628218055,0.049656345901399744,0.7899761210907308,0.14962818345007445,0.5512301528833883,0.04307588713827781,0.7924058454001084,0.18413698722358118,0.861344098354998,0.9691804694186497,0.8163567386729805,0.43695236373466634,0.6632090546117695,0.09262750937326461,0.7866802716374388,0.5559858731072626,0.9529096935237109,0.6937966668954821,0.7139485762176165,0.34867661240357783,0.6016483516483516,0.3311558522459771,0.10552099044675439,0.843225540662569,0.38533114580287814,0.8882200337762223,0.3981743752128331,0.9353272769624971,0.6427590685663127,0.5437964401958773,0.32105262912307975,0.569451530612245,0.1730234952301808,0.7819346099378117,0.5530541824751977,0.8456557100863281,0.3477095008623566,0.8434556228846929,0.9645580290867722,0.6265117947227923,0.08749637228484562,0.6965437233651269,0.3015847156580668,0.8984206069780105,0.47695277453828067,0.7336415618691792,0.3964347732739632
25,3.355739983454268,0.7412411266315548,0.6149781153342726,0.05951183312862894,0.44250596496989175,0.1832216230896364,0.7234729716353319,0.036272797726211115,0.8891206190681853,0.477844938136221,0.9681641428323171,0.7660701085091155,0.9080285473019523,0.47959413021823466,0.9326623672329087,0.5261209628796251,0.45919716673228095,0.02059288303529143,0.4230777547074558,0.21188315921882067,0.9745583865324453,0.7201556473918257,0.7907682648147067,0.38632623413773365,0.9106613191150605,0.8001425716669389,0.8901523753322673,0.4107947374092757,0.48507628343503895,0.04316476398830803,0.7780118458190065,0.043259838298809535,0.6516011134485031,0.07859668554461458,0.532380612305301,0.029929172838716885,0.643044973718595,0.029998646618191994,0.796833956036208,0.15850112078631085,0.5710350075128459,0.11062020419649787,0.797476587156371,0.16332134849941277,0.877242089150458,0.9726560518357584,0.8369608099602631,0.39894144025226425,0.5646743680680332,0.05740623519949033,0.831449822756704,0.5354434414810159,0.939742729367238,0.5550456462692779,0.7397260843978324,0.3175160085521626,0.6641483516483516,0.44522134937490104,0.14906570295024613,0.8567981789960344,0.3964125833051325,0.8891855047103587,0.3874740757595762,0.900922431865828,0.38242636646245176,0.42743395009236723,0.20483274292421422,0.7268699890670555,0.2344875835681159,0.8373196903459819,0.6444340226862492,0.8741097052296467,0.3739218857451796,0.8599399899006294,0.96840703568097,0.5397084460747816,0.05801860886765964,0.7584848577030611,0.3063214779911143,0.8930173934448499,0.3973725769689469,0.7507509572337914,0.37526455524248803
26,3.2412446592702326,0.7335317914663003,0.6645652663259606,0.08944465341386326,0.3316557574936224,0.12893547050479026,0.7632140214648847,0.05016749404941167,0.8559759854084944,0.4936232620794294,0.9678710989263891,0.7361085942149158,0.8873798308774609,0.4525720075896298,0.9704988020847616,0.7197669848584082,0.4515668059383056,0.021117170451322866,0.4760913597622051,0.24246224053328932,0.9829688484386365,0.7601640229473589,0.7240189359389777,0.40305590887369874,0.8940294508840495,0.771470999275631,0.8740539438708709,0.3703547563794353,0.41485739421968065,0.04444571383453805,0.6724740753460596,0.03163326526885686,0.6851864351273753,0.10273662002176016,0.4609998128674625,0.025842306523200704,0.6462173496053314,0.02778468438101988,0.7764211810536594,0.1829737616903166,0.5910180742486977,0.1401586477187466,0.8091390667958106,0.14200003517126447,0.8451595568665586,0.9656843285344338,0.8154592139899136,0.4489895845933671,0.5453665937828833,0.05798990367670898,0.8210164142153433,0.5268438282955109,0.9390533354081665,0.5812042694124904,0.7256253311900599,0.32759732747282305,0.6515567765567766,0.3435924531715471,0.11918998983492735,0.8338267299745742,0.44860551711738644,0.8519472195657924,0.2950922606436776,0.9498835313300723,0.5934755115617179,0.47438495147054516,0.2318245701729837,0.6532115524781341,0.2255859638902612,0.8146465734868543,0.6018858115610578,0.8610809020879082,0.34330128864312787,0.8343451489957738,0.9632073328405178,0.5126198539960413,0.05382395637352426,0.7436243615235494,0.295084031866924,0.8825490502498858,0.41715573998309186,0.7296426940275564,0.3823526645407665
27,3.1661161890412806,0.7744446988779482,0.4652704944683902,0.060114320660265654,0.3331799142642813,0.12011567952186769,0.733489549915364,0.04460173040150175,0.8306642026249005,0.38900696155925923,0.9575342141760115,0.7805109336768534,0.880353480278879,0.6132772894166414,0.9585594324103689,0.7201983215824777,0.3640088642799995,0.01727706569320792,0.4107573500855404,0.21989427259548705,0.9829469919631261,0.8701686251658721,0.6554123919764085,0.3486755537810423,0.877821096996345,0.7337378108115951,0.9038550906375055,0.3944816261992524,0.43432729100818457,0.04097912511299827,0.7610362911084129,0.04860635030534192,0.6256851245629889,0.09545207031835179,0.5572095674374108,0.029420732769574097,0.5804204279006497,0.04798947417653771,0.849168481978374,0.19625845630653407,0.6126855701399432,0.16346372056711356,0.7895387985735978,0.13124500858500263,0.8521790236366258,0.9675419848996138,0.8932296139748614,0.4837093042323894,0.5619068897349441,0.056240477046210116,0.8857770992462256,0.5230208843764156,0.9393904170579608,0.5564953986318486,0.7190926027091269,0.33278781455358675,0.6920787545787546,0.35228730085957527,0.11406920706895533,0.7923622699297148,0.3275115987999853,0.8521466213604085,0.46880646919802527,0.9299821414706111,0.5822681115649729,0.41143330498783104,0.2052247812730617,0.6001713966836735,0.18016770808624846,0.7985920873658697,0.5477584599086669,0.8863246075731696,0.3747360160084768,0.8392862510294745,0.9640620420316306,0.5441405469700547,0.06731311219803218,0.8059993971288953,0.3221840348238932,0.8817891275904017,0.39735752340717234,0.72454292107914,0.37928825536409344
28,3.1083443812146165,0.677123883673002,0.5325735533193827,0.0860965474766139,0.33937857458395065,0.12529485867993073,0.7217357416465907,0.046905711660319635,0.7879571892077112,0.3927074974723524,0.9549443736576511,0.7846433719337585,0.8534573965521992,0.5161197518153281,0.9749278615098643,0.8015891248570571,0.42545115121344124,0.016485802723093336,0.37363457961336455,0.19374000381002063,0.9801768526855524,0.7873908470262732,0.6925639226820686,0.3666088074653178,0.8528332308290794,0.7395754161976644,0.8824511840437947,0.385550960169135,0.4071817504003967,0.03830416947091295,0.6681577857095159,0.033051707186153044,0.6436511686334506,0.09707921203767242,0.5156207930982465,0.02683819052936753,0.59975747125751,0.0332819376187415,0.7804242232253636,0.2066192588156281,0.6104477314479686,0.15259659960791305,0.8009223946200782,0.14268597642158656,0.8625270056010865,0.9693589514675184,0.8273819531229609,0.4639673106365652,0.5478776573799198,0.05741705146136103,0.8539465864050656,0.46950195207009515,0.9165653257153275,0.5027285408411744,0.7079441330062133,0.3244669061327521,0.6094322344322345,0.35579097990760744,0.11526917500162757,0.7548444281689672,0.32867991227071247,0.8168138441817404,0.33560623910480814,0.9449895178197064,0.634671935653923,0.38065302172829374,0.18902353803898791,0.6265300428206997,0.21051020754778957,0.7725370974693677,0.5679573143812147,0.8487811821023156,0.31527339151941525,0.8438576439611174,0.9651363541144836,0.5194626545844154,0.05933061178552419,0.7772676111647303,0.2960678925185444,0.8544554040817243,0.3666694981119201,0.7079986189992239,0.3653496725040793
29,3.024500116547795,0.7725364475994199,0.6699098768622808,0.10991541369255789,0.3087592645440799,0.11651976507199113,0.7498858818996942,0.058881181630733664,0.8651590324204124,0.4909800709492249,0.9497512733235776,0.6886009475427667,0.8672120123849979,0.5307117398632718,0.927830595127969,0.6475271051000198,0.42808630608435044,0.019728111227219833,0.3987074506200189,0.22260968442591006,0.9833415351447621,0.8684753530595112,0.7170625981909942,0.46610708554896413,0.8676384029154227,0.7317521262748521,0.8670520286415044,0.3291621925148861,0.4857698232479777,0.049686456347198205,0.7383947225322687,0.03996344746228971,0.6537660133218839,0.08164829524415383,0.5228399558519973,0.027445462263124623,0.5748796305687642,0.06349366126795844,0.8595018076260802,0.23018839980713168,0.6023272027656953,0.23073505555456827,0.8033584582409381,0.14059996460998594,0.8411343875042379,0.9649116137418772,0.8533824010507488,0.46354727161493026,0.5999345524232402,0.06737471650778738,0.8713091617333153,0.525319992261427,0.9418563670886464,0.5502498662036625,0.7288019516198407,0.3352359607610771,0.6868131868131868,0.33485360904435213,0.11241095877450541,0.8394520342728261,0.4562398736830975,0.8195312023114332,0.396058797418489,0.8879175401816911,0.5223381395920468,0.3843309972729672,0.1944358322325559,0.6495194059766763,0.26136437594957407,0.7940162663517136,0.5792862189347656,0.8446774024887588,0.3019038973467726,0.8249198212170945,0.960432568415891,0.5713959812591933,0.06858674814213128,0.7765272965102612,0.2976488048437163,0.8889011457059773,0.4164990208058434,0.7180035585494121,0.3806004363449491
