epoch,train_loss,train_accuracy,train_1st degree av block_rocauc,train_1st degree av block_prauc,train_abnormal QRS_rocauc,train_abnormal QRS_prauc,train_anterior myocardial infarction_rocauc,train_anterior myocardial infarction_prauc,train_atrial fibrillation_rocauc,train_atrial fibrillation_prauc,train_complete right bundle branch block_rocauc,train_complete right bundle branch block_prauc,train_incomplete right bundle branch block_rocauc,train_incomplete right bundle branch block_prauc,train_left anterior fascicular block_rocauc,train_left anterior fascicular block_prauc,train_left atrial enlargement_rocauc,train_left atrial enlargement_prauc,train_left axis deviation_rocauc,train_left axis deviation_prauc,train_left bundle branch block_rocauc,train_left bundle branch block_prauc,train_left ventricular hypertrophy_rocauc,train_left ventricular hypertrophy_prauc,train_myocardial infarction_rocauc,train_myocardial infarction_prauc,train_myocardial ischemia_rocauc,train_myocardial ischemia_prauc,train_nonspecific intraventricular conduction disorder_rocauc,train_nonspecific intraventricular conduction disorder_prauc,train_nonspecific st t abnormality_rocauc,train_nonspecific st t abnormality_prauc,train_premature atrial contraction_rocauc,train_premature atrial contraction_prauc,train_prolonged pr interval_rocauc,train_prolonged pr interval_prauc,train_qwave abnormal_rocauc,train_qwave abnormal_prauc,train_right axis deviation_rocauc,train_right axis deviation_prauc,train_s t changes_rocauc,train_s t changes_prauc,train_sinus arrhythmia_rocauc,train_sinus arrhythmia_prauc,train_sinus bradycardia_rocauc,train_sinus bradycardia_prauc,train_sinus rhythm_rocauc,train_sinus rhythm_prauc,train_sinus tachycardia_rocauc,train_sinus tachycardia_prauc,train_st depression_rocauc,train_st depression_prauc,train_t wave abnormal_rocauc,train_t wave abnormal_prauc,train_ventricular ectopics_rocauc,train_ventricular ectopics_prauc,train_mean_rocaucs,train_mean_praucs,valid_accuracy,valid_abnormal QRS_rocauc,valid_abnormal QRS_prauc,valid_atrial fibrillation_rocauc,valid_atrial fibrillation_prauc,valid_incomplete right bundle branch block_rocauc,valid_incomplete right bundle branch block_prauc,valid_left anterior fascicular block_rocauc,valid_left anterior fascicular block_prauc,valid_left axis deviation_rocauc,valid_left axis deviation_prauc,valid_left ventricular hypertrophy_rocauc,valid_left ventricular hypertrophy_prauc,valid_myocardial infarction_rocauc,valid_myocardial infarction_prauc,valid_myocardial ischemia_rocauc,valid_myocardial ischemia_prauc,valid_sinus rhythm_rocauc,valid_sinus rhythm_prauc,valid_t wave abnormal_rocauc,valid_t wave abnormal_prauc,valid_ventricular ectopics_rocauc,valid_ventricular ectopics_prauc,valid_mean_rocaucs,valid_mean_praucs
0,5.799521536310614,0.058087168918403174,0.5924703669161665,0.05436688727377025,0.5506961288462029,0.18236832798609648,0.5343107403270596,0.01735103276647669,0.6199852703287329,0.11106108678092089,0.5610173580146396,0.08496999578449377,0.5096352511611227,0.04877807071125511,0.7464419475026599,0.16231158590175684,0.6631102699591757,0.03931904540608873,0.6762499502403865,0.36122591835125095,0.8961428385154802,0.1538157058914221,0.7699418724525819,0.34130323574913646,0.573245463003661,0.29340357889878943,0.6702551271884679,0.21318202565879102,0.5469905294519846,0.043789320757313586,0.5021220586655206,0.019061320829295073,0.5487043175125468,0.025623601271533143,0.5660622586695381,0.02926390981803462,0.47609747937443503,0.024767169029370806,0.6039709798462749,0.022237656628923592,0.4980780961881705,0.03594555816616594,0.476715870446297,0.03299207591196075,0.5217441902592161,0.029326734702877732,0.6321698533044537,0.8733688916805086,0.4386587000223364,0.030611076586022554,0.5582938822752772,0.06498051866074295,0.5816909925031756,0.13648210290466645,0.6219620344348145,0.10123806204564215,0.5902505121263103,0.13085720356123362,0.06433150183150182,0.5363538626630964,0.19434216370009405,0.5994887008281619,0.09338922239620967,0.5101335192015996,0.05224647477077935,0.7299421228694314,0.14690774910718288,0.6586342948044357,0.3228056314349089,0.7747226383297443,0.3432866330967224,0.5825374151552242,0.30558910244956383,0.6956118432012064,0.24245974727230687,0.6356986907119935,0.8777057604073232,0.5237106255886806,0.11743588254403711,0.6225241793093752,0.09874194913306229,0.6244870811511771,0.25408275602838093
1,5.3587294609416904,0.6323181436531562,0.6716545038833224,0.05852559261142007,0.6761395284049141,0.25642850701001996,0.662183418067476,0.027011915325974762,0.761668064523318,0.1540310774505034,0.7399989878159414,0.2576418370322312,0.634993507595917,0.08912289668099527,0.9201604282204977,0.41695989959885477,0.740957774805286,0.043124977455155956,0.8140130499771733,0.5267511041012433,0.86289186555075,0.08429763510444856,0.715170366875884,0.17130984296952373,0.7665884332062001,0.471723002028428,0.7826483178911731,0.20325282377892667,0.6546947419104899,0.06396471096865784,0.6943785548717184,0.029390739264777678,0.6208581300693192,0.026771283864488675,0.6426362784173293,0.023707069649912343,0.6444871548465629,0.03693035076164159,0.741397597288628,0.05135442684629808,0.6168538720491907,0.04158063854809334,0.4675275226813118,0.034133923852786394,0.5010164202796225,0.027786009434651215,0.7317005645128472,0.9108395986270468,0.6657465462117556,0.05379270022921371,0.6932260989459076,0.07434280855606801,0.5889966587196196,0.12639177953712272,0.7769224909921739,0.11987506579725779,0.6959078103190492,0.1622608228550275,0.6533882783882784,0.6741085737782191,0.27389167035196965,0.7403162705810542,0.13016087725032313,0.6249859952426916,0.07718535743879434,0.9182560200180535,0.3991113664095431,0.7912720534206292,0.47939069863362904,0.7308445434118359,0.1843504299542839,0.7642742294425282,0.4717527681745536,0.7898518576968826,0.21143126200862408,0.7202282610794386,0.9052283024408072,0.6008882960259343,0.1305422690499375,0.7536853030321826,0.10732667500698385,0.7371555821572229,0.3063974251563136
2,5.113074845261687,0.5911762460880848,0.5736121573363305,0.04298291259230935,0.5056336726094766,0.1750596824036329,0.6691179915007239,0.02468044391641956,0.7179228598908999,0.1398261569896617,0.7458072287753482,0.26611286889925895,0.6533124715315175,0.10996381409058309,0.9417236946224117,0.570515955479011,0.7305489939380141,0.04388574368152777,0.6964062272604997,0.3902830545873622,0.8546016093422294,0.07937000395773446,0.8026822934336882,0.42127202156718735,0.7579098072408412,0.4212899419895062,0.8615217161956022,0.3836782421352278,0.5610150368890636,0.04344771501439156,0.5526334879780235,0.020228059322222443,0.5861623495113893,0.022946106409328364,0.5147531451171162,0.021013957016758573,0.6148082896144911,0.034703473633502784,0.6006789777885372,0.02481901259272292,0.6852817987010618,0.06059274024242127,0.5116321466934959,0.036325542435835495,0.6070716774820832,0.03745776829939317,0.7955473213627606,0.9492880833540726,0.4964698193503846,0.04643769929636405,0.6876391566126914,0.09621208738018044,0.6861878158236085,0.1666182183469221,0.8084115091535045,0.15713879516559387,0.6747812316946589,0.17726481854811602,0.5963827838827839,0.4860908024189909,0.16354874775589862,0.7244417896515903,0.1273563927427483,0.6492476213458356,0.09790305907468845,0.9366757320926035,0.5703147975249091,0.689062607860613,0.3611611554968786,0.8118151071145874,0.423605320168172,0.7583303660843441,0.4250268159494727,0.8677620254200384,0.41533134850029885,0.7866719224227092,0.9465403390608861,0.6869299391810326,0.17320774914307716,0.7839337327726297,0.13275357188424747,0.7437237860331795,0.3487953906637525
3,4.902693687163366,0.5040836577360507,0.3824291954627703,0.026832377346290515,0.3926143892486139,0.12690240696641905,0.6824886878821635,0.027809504523442788,0.5147313073078483,0.07492174808015008,0.8552140923423568,0.5063606635958462,0.788608277105787,0.285925744041785,0.930287490070932,0.41390090725240675,0.650386107711719,0.03647428035129904,0.6382660657313082,0.4044600974754867,0.8900564220092246,0.12066009174094282,0.7139885927192455,0.33090064963311594,0.7139589957125575,0.4441751286710482,0.8225235951843858,0.28478288621203934,0.37589209120173905,0.02867901250484345,0.45171106057422705,0.01525410929551946,0.405393809234166,0.01369137439063757,0.3805398758663169,0.012812237816781322,0.5039535595560966,0.026245956845472096,0.6115187919869274,0.022622545150861373,0.7261620318634394,0.09642520429858364,0.5557334926950795,0.04212308393710563,0.5876836528529277,0.03933756689034492,0.8426436577412262,0.9624977836226081,0.31002461587638874,0.02529977769962085,0.5805945628527308,0.0693388463187977,0.6929941175226582,0.18579121758794506,0.8652815604787538,0.22869385787163235,0.6246548184737626,0.17973774296744538,0.5256410256410257,0.38649316524756544,0.12399188327459004,0.5442288586238633,0.07428932128971208,0.7564938982349697,0.23623017902874197,0.9251612860404609,0.37386059196820914,0.6345107941148949,0.36728143763561566,0.7037680013788291,0.3013305756760785,0.7067839657282742,0.43969094798236086,0.8135429361342721,0.25753412428749733,0.830868726199276,0.9594254381581154,0.6797010344733525,0.18386040727133082,0.8418090134345577,0.200788450910688,0.7112146981463924,0.3198439415893582
4,4.646753629449033,0.36638424547744447,0.3899048067904335,0.02807885962391834,0.26463507998114005,0.09899076110844797,0.6139047191037553,0.023767832580288053,0.5526870507299925,0.09676562258891216,0.8876684211761235,0.530386677757957,0.81819128080406,0.3202322056211935,0.9251543864108729,0.37887901836665716,0.5622125141904861,0.028806261618232895,0.5925057745267949,0.36554362908487154,0.90700645107109,0.16384733749850033,0.5951700854442988,0.20439727953073328,0.6414809360765749,0.4183621591401812,0.792868765591791,0.2907988737313153,0.3646897628746749,0.02694657918473537,0.41025264183728566,0.015243997075644476,0.5138650150991021,0.023841642448956576,0.4063823266485779,0.013716955300676863,0.3988531070631141,0.02059288932158886,0.5609684228045755,0.035138786898429905,0.7038899499993917,0.0969491483368198,0.5661126828751684,0.04868522900829038,0.6819333322661149,0.10023364233993877,0.8371846382425625,0.9619466655911626,0.46880553392150304,0.05554109377269731,0.4825586728469101,0.05405512921838466,0.7134621950499468,0.29941535192121504,0.861548548741064,0.2886454810923809,0.6116258185987928,0.1848077448060048,0.39125457875457875,0.280766214359499,0.10137571904977909,0.584020420620194,0.10123453861238182,0.7925507618587975,0.2564236545997409,0.9207806775341156,0.33686719893550165,0.5850651113773484,0.32940434922540074,0.5604844200832404,0.1667075619422911,0.6408069989985534,0.40767901665622563,0.7884864585251233,0.2800781024046638,0.8279870466500566,0.959764014180106,0.6876931848632389,0.25835509146542657,0.839514098222371,0.264570711595236,0.6825595811902306,0.314769087151523
5,4.458620036943169,0.48042134188229907,0.41584787088185826,0.030605953332502562,0.3137441527991306,0.10598666009063613,0.5667272224230988,0.020007174681761233,0.6646004505921053,0.17234909086493172,0.8945625763526743,0.6242238642799471,0.8281309704309401,0.44197401593553065,0.8359382568527151,0.23349518430166666,0.5346454987303666,0.0231668254155352,0.5284566307426373,0.3041954241989744,0.9033174727006318,0.1694641473681647,0.6128171277831764,0.2261951612521338,0.6452316628078751,0.3774741480328775,0.7190033353309937,0.1769511634658792,0.38313446209336477,0.03083692543710303,0.49789111544697195,0.019772099926171523,0.5405900573685494,0.03014449068641427,0.44000261515485983,0.01630350717953115,0.43847305566826356,0.023241060071790165,0.6383996928523876,0.028365618125082773,0.6959366902273751,0.08898579916597799,0.5850764785088582,0.04923272587880344,0.7111020982638603,0.11539759489240689,0.8465568491615983,0.964565352417656,0.5716116979780003,0.1437040200719174,0.418029170034597,0.039477591551164766,0.7570510025369184,0.3405785227793539,0.8660154102125228,0.3197978174506335,0.6241812453309753,0.18949970143905734,0.5277014652014652,0.31660579073522477,0.1061184122693396,0.7027089626251799,0.1593189814156693,0.8122737693050193,0.3353469129129368,0.8153216760473636,0.1962829701512506,0.520159905995401,0.26794376542855236,0.5608695559659889,0.1692233576171668,0.6368231890508511,0.37192048081025186,0.6955870018207271,0.15912918901980777,0.8365096776708452,0.9618416519010623,0.7269075392306675,0.27569914830981646,0.8420994959456497,0.2841208792351549,0.678715142217538,0.29881324991554625
6,4.322765651035651,0.3924127929165713,0.3688418851450633,0.02857364223239735,0.3056336414374678,0.1042215154409026,0.5227629381204099,0.019273785119144543,0.6722122399181873,0.19334488008526046,0.9126803284682846,0.6594916756476229,0.849582384791629,0.432722983184326,0.8967249731657017,0.3719302663115091,0.4257705552551442,0.016951976539767936,0.48942982010203495,0.28606660291343705,0.9189228103597262,0.5738787999389184,0.6579925318074334,0.29779977528838153,0.6432855316002521,0.44371184458021895,0.6526694850852763,0.16136669247414592,0.38331025185818157,0.028887230038163784,0.5108561530633404,0.02436981622476308,0.5629648969322162,0.038016094533926875,0.43177780325493115,0.015385788342066341,0.44387758249632814,0.023324629831685085,0.5621956893421292,0.0268770205861843,0.6942688736220288,0.1112604745586287,0.5832550813366887,0.050875855508005184,0.7133774852850232,0.11498721425344569,0.8558683039789159,0.9668581682958144,0.5936145119696172,0.17427928060904835,0.4164698300862491,0.041648147981012754,0.7127022991671431,0.3306242530730929,0.8638494764190385,0.3836595299288582,0.616477680150683,0.21927362753780472,0.44734432234432236,0.31147135220788075,0.10494901339701371,0.7133102354745147,0.1907009565915216,0.8160464354660784,0.332278474835363,0.8950022898635375,0.3320946331786414,0.49676797830285496,0.25998216036017846,0.6274985956371126,0.23857823852687965,0.6259216089907644,0.41791214275955335,0.6307372629474737,0.15404458523612385,0.840769718101793,0.9625949062704768,0.6692945245813783,0.27510724628416683,0.8412321833947378,0.3612111796098241,0.6789138349971023,0.32995032154997656
7,4.195117908528302,0.4899625982749408,0.3657472173730514,0.027546906590213614,0.3357113790835109,0.10901043860536855,0.5044306099833556,0.019238381712391207,0.6479747409484506,0.16711551091196053,0.8995162411012152,0.6619163589656243,0.8149588390387719,0.4368301323861596,0.8308170319763425,0.22401139772546186,0.42770314926019737,0.017370919753666877,0.4666881332373061,0.23087815033523656,0.9138051595308554,0.34606581126721625,0.5549023533762311,0.18820789416419834,0.6678117214565297,0.5268912882411052,0.689799690317442,0.1658601806607068,0.376184739305453,0.02910052181583754,0.38972258398753357,0.013306481115705638,0.5025817186985029,0.028516900567476435,0.3927308810823894,0.013402087642266209,0.3495902174196748,0.017808661830299975,0.568335804635962,0.02903182450711202,0.6410844414165623,0.08827024455496114,0.5727281285249121,0.050005326512880366,0.7125426325695982,0.1189752870002429,0.8606029080885615,0.967506535746031,0.5557034094757369,0.1883669270425768,0.2953364224243996,0.03060534356715927,0.7039556270924259,0.2921232798235758,0.8599558506809093,0.3457429884099479,0.5889230234105882,0.19754465857242157,0.49473443223443225,0.3434118602761982,0.11042958208353665,0.6743950743917655,0.16139001940393444,0.7973091474765581,0.34514552842862595,0.8210322306589498,0.194845159944482,0.4649522997224963,0.2072781889958195,0.513859040266914,0.14932732121499948,0.6469414153777678,0.4982426075238321,0.6735582501147088,0.16103011154825436,0.8455182961149785,0.9632162329050465,0.6655809893525356,0.23257363510469073,0.8450787507391282,0.31873997338435034,0.6628761231356364,0.3038380327761429
8,4.072708620114068,0.7079612243340203,0.5440286446501024,0.04855793356106093,0.4245268890638084,0.1412346869221227,0.6631660462263419,0.027575071022930997,0.8678182682590087,0.31949664297632624,0.9367328873672065,0.7200978056648281,0.9028698798929706,0.519900570507091,0.9412210499770232,0.5201344377713116,0.6903751347898542,0.03993187312081377,0.679766644614878,0.48683107603918385,0.9662539808125389,0.42168394788039326,0.813120871169087,0.45923352857655153,0.8003864079705432,0.6736486181452469,0.8190405703262333,0.2689280571101135,0.5432395944178546,0.04165711993355757,0.6626970385279486,0.03320136934415166,0.6717218067475702,0.046179066632191255,0.5337141418433019,0.020475854371053277,0.5390355279361622,0.03632428492801702,0.6506072974036192,0.03119909033333264,0.7709661049056905,0.12860819958163416,0.6265543233597759,0.0598821782064977,0.8011864660969965,0.1118409545128305,0.8690111112981508,0.9703478697609175,0.7658842162974395,0.35179443884710104,0.41162877106207235,0.03921214171221469,0.8196806035208316,0.36511079807573255,0.93888470695068,0.5998085151475542,0.7279303327958404,0.2771443011364726,0.7108516483516484,0.4227830429942534,0.1375021549163664,0.8717250338935973,0.29262438551553305,0.8635527268339768,0.401479918876465,0.9340295292837042,0.45482440876118496,0.6682570338542346,0.443576541461791,0.7826176579482682,0.3739915405605394,0.7713577945921887,0.6272421842534586,0.7934979878481812,0.23973983833484672,0.8557025378088379,0.9660555999352576,0.7716098279514796,0.3044652365147026,0.9094046038893644,0.5112233257268596,0.7858670706270988,0.43206592135063676
9,3.9530852121957776,0.6644530951835738,0.5713769718854373,0.05761619590672466,0.3591288608091434,0.12091552152980951,0.7005370236723724,0.037617088567620235,0.8910671123300156,0.3477878707746033,0.9456793270740054,0.7248759196226321,0.9297967833489159,0.5628944861808391,0.9472275170722887,0.6457040485930926,0.6426656927012677,0.040001501303855866,0.7114305437145361,0.5276265136463297,0.9569163924390531,0.6293111393187248,0.7375441480893001,0.3952802333895019,0.791592158238761,0.6574569144001369,0.8888507306052291,0.4723645090720865,0.5089000683738475,0.03650298177836115,0.7417656664150467,0.058079654229991555,0.754929146760057,0.05886140221426115,0.5879952777346913,0.024693879685847457,0.5501484186473615,0.0312650837851979,0.6054722961931853,0.027640992486253343,0.7860298960884126,0.1529695704082742,0.6166057292901175,0.059196547679951694,0.8068826744944333,0.13278802744019788,0.859684130375485,0.9687632052819726,0.8153589837140891,0.361270322491531,0.5004611606019012,0.05640591949962004,0.8713295027123988,0.4715533820968346,0.934322832762223,0.5525287355599542,0.7412481128201324,0.30414709803497064,0.6788003663003663,0.36267272417285956,0.12059219899291826,0.8834151684840484,0.3101007508339905,0.8673027699255378,0.39584930979140415,0.943213043593692,0.5853671682861494,0.6881767126923083,0.4558010699199733,0.6920889153211734,0.3019100704811537,0.764949232224324,0.6043814920818542,0.8685148653743304,0.4406546886649672,0.8379282946322435,0.9624777314722543,0.8404985005190819,0.3964473504647241,0.8977511898411754,0.46390208445771364,0.786046492434616,0.4579530832224639
10,3.845181132161829,0.6091138081062515,0.46339224743791063,0.05450017731137619,0.34352593448783764,0.11618076376896837,0.5941646892113649,0.0291679319002583,0.740557039095533,0.2608562475206296,0.9498282541160867,0.7673347322766214,0.8912176168718354,0.5503049601725443,0.9153440641424097,0.4380095908825042,0.5071344546584322,0.023938548808482035,0.5856488354578357,0.38146709777307664,0.9404038383762484,0.2442559145918153,0.6660201292748832,0.36686430986862933,0.6627408089681986,0.485285603336864,0.7654163339922903,0.29139188608769157,0.4268463450126937,0.03528162512179554,0.6019044976077865,0.03215365148816908,0.6451059549679663,0.048824730756534915,0.48557206325227853,0.01788417490664994,0.524437942972122,0.036530969555814474,0.4863877246868002,0.027056002530417428,0.6869470083925249,0.12085915691337859,0.596723166121172,0.06397503231418203,0.825694927735267,0.21223306597800856,0.8904132142192321,0.9746965858835563,0.67176091289661,0.3174022759794525,0.4421342324558635,0.05383544469672038,0.8132783164435662,0.43882214714190515,0.9134798344412023,0.4684301115147522,0.6680029773072574,0.2539830644104,0.6282051282051282,0.3553505631274383,0.12065347507614489,0.7652647444766716,0.2321126188737578,0.8453427718215665,0.3652724891766362,0.9095279894334413,0.3784337158851783,0.5845167000826836,0.33462863632186846,0.6341209113889574,0.28420672003971337,0.6418088628018249,0.44430774839465387,0.7445005567391743,0.2770861234955019,0.8645978563364344,0.9678910199084853,0.7720425299535152,0.33921522160435363,0.8815927125070812,0.4252044809022605,0.7271514726062536,0.37900111360714134
11,3.777575970533176,0.6647584153881383,0.606015080921369,0.11709426755326632,0.3677295742740796,0.13339068580213975,0.6691192723940408,0.030782342026253934,0.8487928408279319,0.4119107370720496,0.9516620884320037,0.6745496399115791,0.9319053469130747,0.41592233475236484,0.9618931137809505,0.600490946189491,0.7080317360933235,0.05041330788067014,0.7972715364913373,0.6054201579438832,0.9776336348547902,0.6674240250805192,0.8316412159895594,0.509856705126007,0.7759490900810859,0.6635947269575235,0.8309105083006211,0.3092955051400751,0.5297380196763994,0.04325913681225114,0.7047019262947758,0.041325120383095985,0.6666412670384055,0.05189136452267723,0.5562074709504252,0.022998941750034002,0.5702684586053155,0.04068121212970612,0.6337414134842341,0.02270788409001805,0.7945002806777282,0.1553943967468967,0.6424455303905203,0.0847340435833391,0.852487096486099,0.20007777733503396,0.87806607894093,0.9723913740512377,0.770142867716848,0.4498868879217265,0.5269070044104964,0.06343591830636643,0.8479428932361106,0.4774802022476557,0.9180441212863182,0.5722636549011991,0.7463107210573621,0.3106916035635948,0.6888736263736264,0.37139372787355457,0.12796513437046436,0.835351566071399,0.34824099227003635,0.8716043849972421,0.27402705296990265,0.9495060200180534,0.48978815658122554,0.7618950026308401,0.5116287880735055,0.7951023908214246,0.3830924598786595,0.7317411260709915,0.5948573101790269,0.810339567058576,0.2758864362904831,0.8512058790634505,0.963922194444647,0.7985609048125127,0.35531524565468403,0.8658870157418779,0.46255474379395983,0.7856897804690839,0.43520713768241764
12,3.65795912095476,0.5789634379055034,0.588100715950185,0.09682742745079813,0.3795443444980781,0.12335527982099534,0.5737977535327038,0.02916908060525704,0.8271466532623357,0.33466571715730736,0.952283485523456,0.6993762993576763,0.9159093010660361,0.5726505747591891,0.8744970825203571,0.3255862762811994,0.5501185834495451,0.027740512243344527,0.6014667654977803,0.3572570239257862,0.9773690945295183,0.7737023300220036,0.6333369784288653,0.2833077997211603,0.6185526529852987,0.4033502248155433,0.7561715051499478,0.2684014947219838,0.4419259258763203,0.03364605721881849,0.5338025484550701,0.020573422600363326,0.6666903357708045,0.05818054302465083,0.5293950150202806,0.032670742783118364,0.4746895784246031,0.025521322481546524,0.5529428675180051,0.03148338854086222,0.6759834582624398,0.08780106819645184,0.6092713907001999,0.08810586282800544,0.7799257889974268,0.1636345447256958,0.8894489000734958,0.9752882261946938,0.7293765069691489,0.4187007370218197,0.3807764890675499,0.03578921641307831,0.7731484792241746,0.4003742663234376,0.8895750599315403,0.41305246564186604,0.6731573059513026,0.2622300705509871,0.5471611721611722,0.3910274693865271,0.1240802164250008,0.8297004563554087,0.3003562043854922,0.8528886427881963,0.365855231098971,0.8647163555992141,0.28409040532214036,0.5919916610802859,0.3055200517291457,0.6048697347030836,0.20393098070026985,0.5926244853677534,0.36950145710700777,0.7397643283621348,0.23894187580041676,0.8607664247537365,0.9665828931267434,0.7206959388590466,0.25860093941203577,0.8472268740773818,0.3895189519618016,0.7178429428484335,0.3460890188244568
13,3.5417810027066663,0.5311044958400122,0.6604122326645463,0.12293560067774467,0.3823704878739995,0.12504611585223008,0.6403405273181607,0.0325513977318546,0.8764203485243974,0.5176563581166396,0.9136423314897653,0.4646142007968601,0.8503306991883761,0.2973578022367165,0.9134631867678912,0.4202046016700268,0.5876559372361518,0.03953338357520156,0.625011197922746,0.36628270294848386,0.976949741758254,0.5877614188793343,0.7542785948502552,0.4119648955195909,0.7247441237028098,0.5962532682914135,0.8192031142841242,0.36762609443352184,0.5159993798806772,0.040806844351164204,0.6959361798084998,0.050790227205077386,0.6828532077888323,0.04768142767185282,0.5615007242255508,0.025609572885104143,0.533001734516886,0.033740086943011185,0.5136608818011257,0.021964408571014997,0.7864913198457403,0.15302805905740074,0.6487379659187759,0.10899735662889584,0.8099547892552443,0.14688491632867084,0.8494482185591872,0.9654005427542963,0.7895940279971205,0.4725225614937577,0.5566097023707224,0.07732514879949211,0.8358678680264541,0.4663459410629717,0.9123906922922973,0.5488976453344946,0.7191433042914294,0.2781400955487712,0.5613553113553114,0.39207650108814474,0.12852343605169492,0.868707915994382,0.47212565789305183,0.7974804364313293,0.18802951618282834,0.8917417233048371,0.3193817523902007,0.6112293156900855,0.31808552695081704,0.710434203470904,0.29955063314589003,0.6814896517191499,0.5240013963805744,0.7905830710375806,0.31739527688932645,0.8160701541425328,0.9550530076819668,0.7812308954578058,0.3444991589134318,0.8551546690153368,0.4352234317596913,0.745108957941099,0.39107898129449764
14,3.4785032562786964,0.6101060987710861,0.690152596099938,0.16179629425846442,0.42495427956945575,0.16444865007822218,0.6922748958084779,0.03663888730477719,0.8423169500524771,0.5005375810410213,0.9465926476388623,0.6069331834933377,0.9312384321944961,0.4963477573382595,0.9564688330098217,0.6184317611993506,0.6277853671185486,0.04592778296851385,0.7575625930922789,0.5736127533174539,0.9880720380655186,0.846677711942342,0.7126377509227915,0.441367838020639,0.7628198356506302,0.7025537268268482,0.8110584513883481,0.3550977954764851,0.557729944731698,0.05582908726113406,0.6648471563421546,0.041155992833165185,0.6994022658031462,0.06280882830029053,0.5646992309646324,0.024341327426570507,0.5809618382557071,0.045548282774673265,0.749846047933184,0.09269176676853766,0.7943008517656628,0.19152637516395335,0.6640236655555052,0.12691927112435059,0.8813589721338021,0.33676518163271774,0.8666816643396577,0.9708907002802638,0.7795280799812925,0.3651088530266361,0.5077392398650956,0.07351322517663376,0.8786940291528639,0.545576730515356,0.9240280267984115,0.6633959285074595,0.7502879883049799,0.3387571582984243,0.6643772893772893,0.4201907512711737,0.153556671974164,0.8225882430795675,0.43710875776544067,0.8266932828874792,0.283129829619249,0.9421892422874741,0.4835593128542561,0.6984943617182838,0.44931115598432564,0.6583350001276693,0.30603452337234616,0.7063808834983867,0.6039606381670188,0.7815232734509937,0.3092173268327924,0.8365810821198523,0.9619483410733904,0.826400384671545,0.38828013526888144,0.8570019723865877,0.5184200770195461,0.7614889524999103,0.44495697908467374
15,3.3518035821119034,0.5056865888100145,0.7155160846333097,0.1510901340367885,0.3912981734449754,0.11993085270858786,0.616050215409659,0.037756446362408415,0.8463234807727206,0.46552242187207443,0.9580805941708816,0.657368304185663,0.9275468253024692,0.5321397969039112,0.9679847051635521,0.75257572396494,0.6718348496203749,0.04379732285686901,0.7517498020387325,0.550675260447663,0.9909388861017983,0.8313852571413953,0.6179833053829633,0.32010910695217465,0.6117255004064096,0.4535871581098161,0.6511656225759643,0.20019498128355173,0.510094183133424,0.046543875697795035,0.4175634188088001,0.014141772108947983,0.668374414859553,0.06823733988723635,0.5285355357583088,0.027515112806820206,0.4551404341749655,0.02285475443372938,0.6797694879864431,0.05897829039601263,0.6675933666207271,0.11527670375611147,0.6348726534907451,0.12893766127126532,0.8730323510429814,0.3093431274869566,0.879218279390468,0.9732588478743268,0.8060723528598762,0.42204398940897464,0.33796572453941276,0.034139300836575404,0.7734373710713551,0.4475174825782204,0.9217369220796917,0.5965848883939104,0.6989483163274282,0.31042614495417503,0.5066391941391941,0.38813210177412727,0.12046890492015565,0.8234006445225596,0.3703444069084948,0.8507329874517374,0.28020221213347773,0.9518763606435512,0.598129095126489,0.6959402224018728,0.4285031606950534,0.5702944800027236,0.20815109460451536,0.56769862022922,0.3854424890972409,0.6372901268663914,0.18315482310966014,0.8443831110991294,0.9632737085167631,0.6936197046822208,0.25504161434296724,0.8607689413204652,0.4988181857962419,0.7167397546358181,0.39013906320464176
16,3.2853059133822002,0.6275093504312648,0.5612120635414093,0.1411079287693363,0.3731476479116268,0.12174886860068211,0.5732500801473247,0.04641118354177501,0.7505908317347301,0.293763473211826,0.9316845979668287,0.6837757007907929,0.8564692501248821,0.5467291327470769,0.8455280031202165,0.4723093040739864,0.5715557832357787,0.04101650908061073,0.6313598172164598,0.41491041270160056,0.9550352167926752,0.6732751540289339,0.6785975572453906,0.3927436102943853,0.6148529413137063,0.419652717885914,0.6149870500728364,0.14642768020254907,0.4668981176097146,0.04514645461611795,0.45216000695319397,0.020048907779206412,0.645028248852495,0.10444466675654233,0.5751422411952081,0.07425119318103987,0.4280814961928422,0.02220575754130876,0.5670202142468075,0.0946569693622098,0.6401284860955903,0.12291157537485274,0.6340124698885309,0.19193092900813932,0.8242284852968187,0.2431574966836381,0.8763274820072867,0.9723337458326594,0.7069968892816134,0.35967596262151713,0.3543015932361222,0.044500095291061866,0.7472470468120311,0.46227676275315205,0.8480845459230814,0.34528035094115705,0.6564417838524149,0.2776552793952619,0.6064560439560439,0.3730866203327617,0.11918365006067147,0.7464493354939322,0.22122769702671743,0.7782131222421402,0.3171346375406368,0.8131301273031382,0.38419274383703433,0.5952647944493106,0.3262101837359771,0.6209337310942966,0.23997085996917994,0.5616713029932124,0.347610229269125,0.5946070824237004,0.13151569407246438,0.8391305123961402,0.9618461129937828,0.6387783362313848,0.22662475785195846,0.7907523186913606,0.3339348625368944,0.6683652076046708,0.32813194808131296
17,3.1498364105032435,0.6597206320128235,0.6396963920840275,0.17679330501307422,0.4415946994047571,0.1631570122365255,0.70465948732062,0.04555917738677007,0.7686941955402772,0.3772765520657613,0.9615617109438676,0.7783538710934927,0.9226874907959042,0.6581398471608138,0.9438700607135968,0.6662884505570471,0.7091859483355626,0.07972906615105964,0.8228172700297156,0.6223658727077317,0.9730639604139824,0.6055242757502106,0.7706399658847678,0.4856695838544903,0.7206371625423791,0.5599023438080347,0.7175471222520385,0.24404946629248764,0.5342482827851259,0.06611864941122114,0.6539254749010914,0.04356356673193869,0.6940127438029373,0.1293791101485908,0.6307637376182907,0.0679314886317649,0.5826103411374729,0.051323930527703565,0.6944236821400471,0.1246960522792902,0.7991394577271534,0.21121213259717847,0.6622270635917247,0.2808229647137441,0.8352967344799754,0.21627397145559443,0.8925054999185288,0.9755387553169056,0.7310310207204369,0.46560549647588173,0.5105924577083714,0.08068761673936484,0.8743565868502471,0.5858671928372772,0.8676035701803908,0.4836170631307596,0.7429404488823442,0.3424239561138783,0.6968864468864469,0.4306138740961378,0.15213941488447807,0.7731876177133119,0.302443351559162,0.8284126361693327,0.35434730495458966,0.9259262332076674,0.5437784884656601,0.7675165635551165,0.48825362675003275,0.7106693278634109,0.3268829803021356,0.6582327250472905,0.4434161735465214,0.6764117941029485,0.21361985008863701,0.8523323206773804,0.9625163767597946,0.7791428007532972,0.35667560269295073,0.8163158134130558,0.4325604803002447,0.7471601551453589,0.41605760457310975
18,3.043120435199413,0.6934585146172048,0.6691689716834993,0.1697456073720417,0.4423696800736585,0.18030384408446382,0.6526242942277823,0.051985216846800096,0.8164173222915039,0.42521011084811494,0.9607593709661425,0.7135639929997108,0.9385380446561937,0.6409264438641243,0.9164572698743805,0.6222822761321429,0.6298852428430936,0.049962794646701336,0.7429413375474179,0.5529180684364003,0.9803917495242914,0.8323804350326325,0.7224788529802592,0.4645868341958149,0.6555031873524957,0.571066669927212,0.6742828599317232,0.2108000310253237,0.5715725516168975,0.0804941379324918,0.5585760392663833,0.02800900869110735,0.6951481909212462,0.11386936569566086,0.5482065208024703,0.031056907654044865,0.545510543537323,0.04708393420786522,0.7092730587665678,0.11740015330156767,0.7931808346643078,0.21789255882802108,0.6780120294583887,0.2953048040180936,0.8869026806281313,0.26055873798119306,0.8688386898124398,0.9710340494168458,0.8533915116493096,0.5627684867266433,0.4292969101273419,0.058119889113202546,0.8432819947491547,0.5594252807749549,0.8988861913089674,0.5563576724433391,0.728959108565236,0.3475965671183894,0.6755952380952381,0.4147133214991325,0.14258890834945742,0.7985479521475523,0.36416105134302124,0.8413767322807503,0.37180485204636426,0.8926933441299847,0.48471764547402246,0.6839949806943885,0.3984905335669251,0.6439126188388897,0.2594585992272161,0.5879256147769,0.45202050958335693,0.6597683614333184,0.19639464785566343,0.8320137475422843,0.9578881201204246,0.750592224093639,0.3209700229315646,0.836097569043868,0.47745893123286975,0.7219669514982461,0.40235943833917137
19,2.9526630370146116,0.6603312724219526,0.7551824683209646,0.19385460805476604,0.47450058434156966,0.23181336603973413,0.7439750438065514,0.051917536594562816,0.8764010697759809,0.5481739689388303,0.9704688878426418,0.721040639384337,0.9570358921820593,0.745600768922769,0.9530953423918784,0.7434020875489468,0.7086551688153988,0.0642998253245158,0.6460465882461587,0.47044151513046595,0.9899223838243647,0.8559434379502173,0.808011427076366,0.535292658361302,0.7594298849330443,0.6803761663525005,0.8190854757175792,0.3206591690968158,0.6441933124885737,0.10462259070555226,0.6817842744212116,0.04145570648086223,0.7120506107968628,0.10083463752274258,0.6259833993866,0.03099971737536933,0.5581445177639681,0.03792745136503723,0.6652257459299158,0.13480762893713646,0.8258230461614932,0.23005602593735244,0.6976463883887821,0.341584675024497,0.884783584944131,0.27726589973427224,0.8922784714859806,0.9761302736655268,0.8031700964918774,0.46115023695842594,0.5710134505068193,0.09629404660343216,0.8951457673753487,0.6522880096397439,0.9332053706196782,0.6432910911762995,0.7723058612605853,0.38116754588244495,0.7138278388278388,0.43807985076872163,0.17196142306212303,0.8467730770335942,0.46518444534109626,0.8403953219801432,0.4010770681233502,0.9116535801518612,0.5746904774640957,0.5857413063387141,0.33831250078158587,0.7274214088738711,0.3309206272303188,0.6674371314120396,0.5432267963303217,0.7855797247575044,0.26553318962711203,0.8497196828913848,0.9630465511253785,0.8029740373450175,0.3730124309609875,0.8612496330203152,0.4974733255807149,0.7560931595066515,0.4476762577842804
20,2.8858787014087497,0.6712464697351347,0.7286696266537,0.23185435795250864,0.3848059123859928,0.1309309433872075,0.6920161553584525,0.061810012617875706,0.8469349619925666,0.502586735573488,0.9404076635520742,0.6091375994700587,0.8655815496346004,0.479592837403661,0.93349178147672,0.5719011799277193,0.7440817372001025,0.10170011360460147,0.7093749813099998,0.502383487205444,0.9908723642656188,0.8990779292788176,0.8070481201502987,0.5520428978942883,0.6863661941863363,0.5277889156513219,0.7858969695349687,0.33008116850977354,0.6397731207069628,0.1508830034355392,0.6673803499728648,0.043158116011853404,0.7123225822010123,0.08907685252958844,0.594094245984913,0.03324527980033391,0.508536148423393,0.029366432623571838,0.5828216728197059,0.15051083723209446,0.8181837457181439,0.2716122604040224,0.6593372030668732,0.27446066412382875,0.8423454316589798,0.21505291567057744,0.8574175232854809,0.9677463162036063,0.781593049388304,0.47302009503586023,0.5560789715145882,0.0874168403211944,0.862089456049627,0.5900753245286281,0.9268503180915472,0.6026617230864498,0.7453471050586602,0.3510805496105154,0.6478937728937729,0.3716432489895799,0.12295699683701906,0.823719335763862,0.4053839257742184,0.7786052554467732,0.2441168026019021,0.9045981455423989,0.4687271236726418,0.6473695433076182,0.3647714071421147,0.7129051374147807,0.3061759930471499,0.6271510237009013,0.40503952643305186,0.7422472974039297,0.26112235986126087,0.821982515382012,0.9552892927619169,0.7522099091432769,0.34158111218172754,0.8528700912590608,0.48323775561473115,0.7304819548503811,0.3962183905388849
21,2.764818226305658,0.7078848942828792,0.6194622302731744,0.19850524997883623,0.45263226238780085,0.18161450316629824,0.664853348694294,0.05086009434742818,0.6887331103129984,0.3165316213483027,0.9534150422197213,0.6543767914628803,0.9201307091691631,0.6155425762720578,0.9108371780576786,0.45722891635954216,0.6209035742632805,0.055225377822719975,0.664610798791158,0.38264113837175534,0.9557830901934437,0.6702070821786522,0.6944305285535597,0.3887620931016034,0.6540808626024461,0.538275353755062,0.7121856251353457,0.2634057958201836,0.5963541370195833,0.1442660982338751,0.7021341720053189,0.05139386388294895,0.6640669170232661,0.11595746611305094,0.5571100365747017,0.037716413611035136,0.5468750222450011,0.036408727088402024,0.6562102826363251,0.12359946244959082,0.8307815701616112,0.2419643998582751,0.6686701195044993,0.3331518982785784,0.871553586443854,0.2762219753805752,0.861461849008789,0.9691228412561588,0.7418131577689029,0.42069201205902107,0.547781688026882,0.08528355443344696,0.908060055031559,0.6257789639345511,0.8530198648958225,0.4490660654428814,0.7228870673703769,0.3216222346669523,0.6561355311355311,0.4211675742896972,0.14407593222995269,0.703473473307867,0.2895655391817088,0.8263528595559846,0.30367842707854464,0.8846680361599321,0.34155797099572416,0.6175276851827705,0.28804315857668883,0.6030363495927347,0.21928844888112964,0.58207285523534,0.41121857587087085,0.684253195039907,0.2215429013437608,0.8297553996882249,0.9592751511174347,0.7930173449854439,0.36926507125138197,0.7898147114402558,0.3614732496056095,0.7031944985889234,0.3553622205575279
22,2.703791422431191,0.7069689336691856,0.596009265237689,0.17383273485318676,0.49773152386056957,0.22333586259894622,0.672052701074633,0.06883527973619656,0.7679211000418472,0.39167913614454175,0.9108125406008263,0.4790658399101704,0.8512158824654696,0.3989022565260278,0.8795043466274413,0.5704935508383341,0.5904832828958394,0.04566981979902558,0.7601332277882892,0.5337740760034396,0.9518176373477014,0.5324058894378957,0.5814313646200191,0.30560808786903715,0.6510913801035668,0.5400824458872022,0.6168581941330769,0.16280554965354854,0.6309583522237573,0.15466995516047116,0.5591310629147707,0.03059206598317948,0.6129972521509857,0.0890487182925077,0.48035748942136136,0.031234663655255603,0.5517450758465557,0.05253159845223693,0.6877929628396781,0.15911500630255668,0.7339083026731295,0.23639158513486352,0.627124192894954,0.1924780218801776,0.8211828052567812,0.20456992034818922,0.8708542847229497,0.9718412581883334,0.7517810156439855,0.4426521175083727,0.40376166364637284,0.04812018160019675,0.8355094502137244,0.5593325170269138,0.8383339089242791,0.33661219648407054,0.6937963061544541,0.2939140864916622,0.6156135531135531,0.44710713963354093,0.15254126822138575,0.7574367820195447,0.3138350733487941,0.7750297331770547,0.21193055368273236,0.851684045292837,0.3980808540722758,0.7129728801027179,0.4051399699721293,0.4696891676809288,0.14544371209781387,0.580009736285746,0.4109050972327333,0.5994686867092769,0.1453165555436492,0.8435457482111546,0.9625959977787851,0.7142000602252726,0.286116435442796,0.7680874466070402,0.29598109883519846,0.6835664932677376,0.3388987832934812
23,2.621996970597446,0.6826196473551638,0.7211343970952803,0.18956867269035013,0.4778170411493672,0.21267403063455642,0.6807880275267634,0.07348022933698894,0.8237483758980978,0.487439013516879,0.9584326321289828,0.705647022629973,0.9259743620980593,0.6019773718823687,0.8561760944473276,0.5041199306475236,0.6080219331948279,0.05846413786950602,0.6290131570527877,0.3618689567819833,0.949105712258803,0.5922486138620068,0.6924142680089681,0.4081254390119413,0.7067559181357604,0.5990174367968809,0.6894344425836632,0.19996596259712313,0.6022620961774263,0.14655522764613899,0.6283167111392767,0.04407389140030929,0.6698448021307553,0.08256360140544537,0.5333758202332058,0.02238260505630244,0.5292422700104167,0.03607458319502324,0.6041699449252558,0.14515575630416008,0.8056729921983756,0.3087605132159539,0.6713903639936591,0.30111404481159665,0.8619166036165226,0.24806255230755084,0.8626140086001549,0.968647635281275,0.7640083856426165,0.4211655202036603,0.44742575887619823,0.06844965231066337,0.8557407116060504,0.6288634731580508,0.8834501288933099,0.4854246108010733,0.7199350725785891,0.32969964760575127,0.6614010989010989,0.4303990532639328,0.14840288121746775,0.8050872177819264,0.409716293839981,0.8355378257722008,0.34845924468673384,0.8116919104762915,0.3587473372708013,0.5724243460866444,0.2744481145950475,0.5962759913525292,0.2011923192204333,0.6256320240347168,0.4605583956476021,0.6718485786346592,0.17836109898239483,0.8311736523412098,0.958009169519338,0.7203247457942596,0.31211920228118717,0.814445767638801,0.39758953325719665,0.7013491921070156,0.3679639627743803
24,2.5080189142379314,0.7656667429967178,0.6527022170674872,0.1856269367032352,0.5066007396494235,0.23774819797172428,0.7282595807160414,0.09768822918690917,0.849421611017115,0.4590505329327428,0.9547555438485499,0.6507093974219583,0.9315640920639533,0.6469513145080088,0.9145890687990609,0.6766373429547718,0.6553601300307053,0.07069901560089663,0.7509228278071706,0.5858533689275265,0.9618571305441309,0.641019108387637,0.7280235918373869,0.43570258883778523,0.6642418337798707,0.5273210206071254,0.7153227719468563,0.25578652212726044,0.7420013982820151,0.2640669392439553,0.6765108653920513,0.0624060552157954,0.6943821827915787,0.12064851922420144,0.5781713997972319,0.04643435610842988,0.5428950059675923,0.04544884323675194,0.7218939130303215,0.12911729218801535,0.8218016208052583,0.30820088270591145,0.6791752189122721,0.3812367802207353,0.8724715347556546,0.25646121798186383,0.8616492858726987,0.9691629570925732,0.7789113730196108,0.5117643085265571,0.5096790260370541,0.08567895513882551,0.8661266073027996,0.6378620740269177,0.905307189785777,0.46887195744154286,0.7505406578096173,0.3614131375748021,0.641941391941392,0.4565835263912708,0.15827671210759,0.8334141671317876,0.36098658141775386,0.8181035188568672,0.3011121112096582,0.8850214716189666,0.5476328336528264,0.6691035047700278,0.4130573644557332,0.6440219357227361,0.2517822076197105,0.5953290864582175,0.4024467481592924,0.6711053829810241,0.20641947244693137,0.8289371629919483,0.9576013710717227,0.7402418745356744,0.31382778022917257,0.8302548389631118,0.379451622286289,0.7247378609474211,0.3902358913324255
25,2.456848638538695,0.7724601175482787,0.5995441779393282,0.12269177270588756,0.410881008248826,0.16505263508751772,0.6028974538768614,0.0517113236930147,0.7893513744686406,0.48255276015837845,0.9336073195122541,0.6471730075046935,0.9020917821429042,0.6133853339618701,0.7363573638468925,0.3961212475659813,0.5480383135219916,0.03210228337893266,0.5975780717887653,0.38417459205220716,0.9249160741950528,0.4395761182171681,0.5427140999728466,0.32279746721472863,0.5468604430160228,0.4009369695519201,0.572899819074209,0.1880165024913605,0.6034236479758059,0.20005987370075443,0.5521681167315334,0.03206169239982311,0.6412301949887593,0.0925232930488726,0.45813541706474714,0.01701128512833325,0.41056892628421876,0.025289049552692046,0.6563823912122495,0.17964817588218882,0.7580389403416447,0.29051453254543197,0.6682305298778058,0.3979325290548394,0.7866448420488572,0.188087777928443,0.8273566952733795,0.9614236100771021,0.7190706556875579,0.395849482544961,0.4327672418924243,0.06326789007184791,0.8023698605336637,0.5403160061775522,0.8606139889509516,0.4485451491376274,0.6623977314988219,0.29921564299385667,0.6831501831501832,0.3699395252279086,0.12213409637537939,0.7787803877758399,0.3883045974166316,0.8055595654646994,0.33963538343702815,0.6890066638347583,0.2923902193016498,0.5324992368262402,0.27255179376678507,0.4545885429522261,0.1570395833619356,0.5052066874374095,0.3167189056403764,0.5544935134771795,0.14691703339643117,0.8008919727191288,0.9515026761464965,0.6564027861943993,0.24207297747600154,0.7962270353416943,0.3628128838079654,0.6312359924774076,0.3265527409206074
26,2.46133157947793,0.8170368674147012,0.5807084705050843,0.1987590838829356,0.591019883110311,0.36962345496874416,0.7407029103360039,0.10186496751255886,0.8414545355820254,0.5208469234149314,0.908143697253179,0.5681967906037606,0.8718975163985799,0.4299341236959838,0.707666365513616,0.38685753599500383,0.6082757017768545,0.08828972529942142,0.6792909459239851,0.5302776247965157,0.8912708322743617,0.6759722760592398,0.6538676212603436,0.43800266799665466,0.7314745343087163,0.6504445249775398,0.7327700176354545,0.28604356488072924,0.7484183106637086,0.2650284185308526,0.7403993227479624,0.10580285084497786,0.7165491919903751,0.12041365296177246,0.5678745085344716,0.05065882648634237,0.5890688657778157,0.05210170445125098,0.6648281940325607,0.07469037447373626,0.8321336894957011,0.35195453217070344,0.6960226804712939,0.3047141234453649,0.8622315032783265,0.24463635010363646,0.846469310528154,0.965583988895449,0.8430662552230134,0.546003737700374,0.512918809709637,0.10855372327698143,0.8917088314906965,0.6091048185789917,0.9008394092070195,0.39354141445395247,0.7389285894455278,0.34955191779475575,0.7314560439560439,0.5342896972249802,0.2319994038514317,0.817685970706528,0.42792941929316053,0.798640676709873,0.2264156004058217,0.6636538921042852,0.2824278283454436,0.6202499528289586,0.3763468840566279,0.5625196823586488,0.24862312292381203,0.6682727829086458,0.5259626073754413,0.7350868425436405,0.26092892810526325,0.8232361006321843,0.9553125438407346,0.7529509581220413,0.35309081969172557,0.8315025698915395,0.3391483028939539,0.709826284184666,0.384380496434856
27,2.372480246604158,0.856728494008091,0.648667441205464,0.20490116461174418,0.5634473507444143,0.31491376040913927,0.7478572484654897,0.12863414172480217,0.774558693530512,0.41667702417006147,0.9138341069719271,0.6511824620515936,0.8875213009075176,0.6319379572060984,0.7437546979959863,0.4440001395064688,0.5115750095657315,0.04035432956337891,0.5967430427699877,0.4127655876196723,0.9323075121054271,0.6139781482930853,0.5880970299785456,0.363451684635601,0.7278814721079827,0.6323054613344726,0.677336684805733,0.21158824449252922,0.6980271700660501,0.2656227093992933,0.6656651489632828,0.05412897351781465,0.6515788408927092,0.14938393206517203,0.5427028936800924,0.05450313428603981,0.5519179343351296,0.05503655517046014,0.6160662409973976,0.1860818363418189,0.8141894322662946,0.3763764010215374,0.6823353892343408,0.42572227151920733,0.84919276156261,0.28399044914145394,0.8620628522893732,0.9688766185263172,0.670547968535172,0.3883321334126973,0.4389761938320043,0.07489768017596268,0.8824380711596271,0.6333735508731685,0.8387279187343708,0.41566239071954164,0.7065929780630805,0.34809921265885674,0.7284798534798534,0.4811729899409293,0.17735306263031897,0.7750039836405163,0.3565802932322262,0.7757719853143961,0.3414977295307401,0.7056894812297563,0.3239758071557868,0.5398850714008495,0.289029479196406,0.4900013618064362,0.18015624523964544,0.6583786302436854,0.492205430325696,0.6810045269762779,0.1918854257325946,0.8274802936471535,0.957190816311822,0.7593551082102664,0.33074301366675274,0.8064063281770103,0.3751470109555184,0.6818317964170251,0.3650694830888643
28,2.295415294251363,0.8133730249599267,0.6974427100355252,0.18922029899778325,0.5617012729401492,0.29949898698722954,0.7350190377343851,0.08160152866723255,0.8339159701260759,0.47015072335104163,0.9523893709370271,0.5780592934457573,0.933489858003735,0.6028594092024777,0.8792856175045085,0.5860924437173348,0.6976675426030805,0.08561437956397214,0.7175869735344451,0.5351821355075798,0.9749829275353991,0.8325247824830001,0.6804018795336869,0.42108716318832046,0.6609347047674506,0.5451100378761301,0.6211214622719171,0.18063038348436178,0.7903844337995836,0.28690481326446005,0.7151308617101435,0.07159565096045675,0.6544067406035889,0.09751925065679788,0.5300135853173666,0.04262018099002686,0.5588444937986868,0.04428543938303711,0.7983390576771773,0.22131807380001928,0.8326105809420692,0.40784605410440283,0.6747292279192365,0.3535701613475577,0.861642356553199,0.24682425967428087,0.8589194083998191,0.9683553464963908,0.8377485905478441,0.49804594561676074,0.47294348395980484,0.06337314709662999,0.867437637806576,0.624076130290131,0.8371200554037879,0.37314710214597396,0.749489253406158,0.3595227082333018,0.6909340659340659,0.48431607345227706,0.1742910435271523,0.808662480723969,0.37255956384679717,0.8302817326254825,0.31270043916685386,0.8475556536398875,0.47009171737969846,0.6462460288119187,0.39768821821939326,0.5957663778502182,0.23216899877911013,0.5969454489818626,0.42215245446153876,0.6294230077943485,0.1659206618677922,0.8314614559877183,0.9597309157357893,0.7233140801445407,0.2824782245237407,0.7963190386992999,0.34706796265810386,0.708208307155593,0.3760772909241791
29,2.2711687797936273,0.8008548965727808,0.6718283765507382,0.1577881748510904,0.4714287610052777,0.25157792377764265,0.7369261048985752,0.09605472557096809,0.8001452627162802,0.4924887696535842,0.9377790677938961,0.6665095946565764,0.9147317272094355,0.6586571107462581,0.8565679683854777,0.6045303782894232,0.613021727650182,0.05299876576114833,0.6927235013738798,0.50104748814345,0.9647106079123413,0.6767360737979458,0.5667546478247425,0.3577858798256822,0.6418244011874066,0.5475339879670575,0.6557850024128173,0.21059963477100815,0.7068256989233631,0.2525973511111626,0.7039948015294288,0.07426551890220279,0.6934741600370845,0.10305105962069577,0.49978456818847694,0.02560189747523802,0.5033473091260265,0.04399644343624045,0.6856854838709677,0.21102135491977692,0.8151873589007861,0.43805691812443304,0.6869731858732873,0.2976846297371968,0.8561717384820445,0.2636176277707711,0.8364099264438503,0.9622405490662773,0.736787798438025,0.43372133670270957,0.451265779242246,0.08603492996038514,0.8680285321115834,0.6360762636962526,0.8651975770493393,0.4274723116303181,0.7197541138939836,0.3529535814802035,0.7003205128205128,0.4099599843547853,0.14675757939670903,0.78474104595162,0.4350392902106811,0.7943940033783784,0.328327238927466,0.822901456220464,0.46530813020070405,0.6232044707409152,0.36853646675916457,0.45444890459694787,0.16377441966405074,0.5793981584510961,0.41699428209724543,0.6339587516183428,0.17803336012413057,0.8073420531766419,0.953105359143654,0.7467056615500145,0.3334769738953506,0.8043910411472095,0.35658073404581825,0.6783132301078559,0.37690307586045224
