epoch,train_loss,train_accuracy,train_1st degree av block_rocauc,train_1st degree av block_prauc,train_anterior myocardial infarction_rocauc,train_anterior myocardial infarction_prauc,train_atrial flutter_rocauc,train_atrial flutter_prauc,train_bundle branch block_rocauc,train_bundle branch block_prauc,train_early repolarization_rocauc,train_early repolarization_prauc,train_left anterior fascicular block_rocauc,train_left anterior fascicular block_prauc,train_left atrial enlargement_rocauc,train_left atrial enlargement_prauc,train_left axis deviation_rocauc,train_left axis deviation_prauc,train_left bundle branch block_rocauc,train_left bundle branch block_prauc,train_left ventricular hypertrophy_rocauc,train_left ventricular hypertrophy_prauc,train_low qrs voltages_rocauc,train_low qrs voltages_prauc,train_myocardial infarction_rocauc,train_myocardial infarction_prauc,train_myocardial ischemia_rocauc,train_myocardial ischemia_prauc,train_nonspecific st t abnormality_rocauc,train_nonspecific st t abnormality_prauc,train_normal ecg_rocauc,train_normal ecg_prauc,train_premature atrial contraction_rocauc,train_premature atrial contraction_prauc,train_prolonged pr interval_rocauc,train_prolonged pr interval_prauc,train_prolonged qt interval_rocauc,train_prolonged qt interval_prauc,train_qwave abnormal_rocauc,train_qwave abnormal_prauc,train_right axis deviation_rocauc,train_right axis deviation_prauc,train_sinus arrhythmia_rocauc,train_sinus arrhythmia_prauc,train_sinus tachycardia_rocauc,train_sinus tachycardia_prauc,train_st depression_rocauc,train_st depression_prauc,train_st interval abnormal_rocauc,train_st interval abnormal_prauc,train_t wave inversion_rocauc,train_t wave inversion_prauc,train_ventricular ectopics_rocauc,train_ventricular ectopics_prauc,train_mean_rocaucs,train_mean_praucs,valid_accuracy,valid_1st degree av block_rocauc,valid_1st degree av block_prauc,valid_atrial flutter_rocauc,valid_atrial flutter_prauc,valid_left anterior fascicular block_rocauc,valid_left anterior fascicular block_prauc,valid_left axis deviation_rocauc,valid_left axis deviation_prauc,valid_left ventricular hypertrophy_rocauc,valid_left ventricular hypertrophy_prauc,valid_myocardial infarction_rocauc,valid_myocardial infarction_prauc,valid_myocardial ischemia_rocauc,valid_myocardial ischemia_prauc,valid_normal ecg_rocauc,valid_normal ecg_prauc,valid_premature atrial contraction_rocauc,valid_premature atrial contraction_prauc,valid_qwave abnormal_rocauc,valid_qwave abnormal_prauc,valid_right axis deviation_rocauc,valid_right axis deviation_prauc,valid_sinus arrhythmia_rocauc,valid_sinus arrhythmia_prauc,valid_sinus tachycardia_rocauc,valid_sinus tachycardia_prauc,valid_st depression_rocauc,valid_st depression_prauc,valid_t wave inversion_rocauc,valid_t wave inversion_prauc,valid_ventricular ectopics_rocauc,valid_ventricular ectopics_prauc,valid_mean_rocaucs,valid_mean_praucs
0,4.7278134420859015,0.4866349430149219,0.770735918159711,0.15702859726963142,0.817166413567838,0.025828362735542485,0.9755481035367346,0.8517499241375486,0.8001680808718693,0.11958371661864384,0.7494733187566481,0.012443911147343396,0.937328182562135,0.3492362386670903,0.8269440142668462,0.035624201871790905,0.8820647238836581,0.5656030375675636,0.9120123944834144,0.21021239432220906,0.7902712688043876,0.18760828087599146,0.42939264143045086,0.016508624563810373,0.878052329377822,0.4381288468682023,0.9248955397319883,0.3644326602803057,0.6342045918591191,0.016194535612284757,0.9219816728515947,0.6895573795182868,0.7018712628098671,0.13833672985432782,0.6535544424817781,0.014372713991550297,0.6780037053096949,0.022080655924718716,0.5838503293816415,0.04788439780460002,0.5739376128335545,0.020315209477974244,0.8671600311389188,0.44124270364344875,0.9761080273228362,0.9271131586725166,0.7333438890061139,0.11404972038952291,0.5858715358164237,0.025521920758028324,0.8418492368854882,0.2934085730882604,0.8695509729132342,0.17804646972722157,0.7813592400016833,0.24085049866878522,0.4895585514142215,0.7623591275130807,0.15501790908713103,0.9754712758414437,0.8499997363600101,0.9322305723034616,0.35770820939296954,0.8809969262685369,0.5571616720605999,0.7711420365635491,0.18342019625193778,0.874877256208052,0.43704666546673765,0.9227194928738394,0.35757183888734984,0.9204444526427787,0.6768464606057787,0.6836934636107496,0.13181660151444058,0.6143904849213625,0.06683484104128765,0.5690354726902689,0.021561846484137878,0.8664307023008019,0.4377289218292869,0.9745271306894665,0.9133321476040528,0.7636634771674794,0.14497622890270384,0.8404148284991734,0.27427024058372673,0.8839972910257196,0.22000174005031614,0.8272746244449852,0.3615809535076542
1,4.278833461107539,0.5123369756785336,0.8262006704143202,0.3648535349703077,0.7691638059531193,0.021577872362943763,0.985570548593803,0.8999449003517934,0.8726036154463438,0.24276064147889204,0.7628420104006617,0.01341533221131433,0.9237337954120526,0.3058215250793985,0.7693424664098802,0.02147314359426563,0.9003416852250146,0.5821986397982611,0.9520845470217574,0.340336152441377,0.6924038110363517,0.13648949122482673,0.48984979866842093,0.022444595750918516,0.8265229747343994,0.4181752267178884,0.8387467834605685,0.3035395629505452,0.6141065179020407,0.014844198016694003,0.9451249269850277,0.7839620772561411,0.8667423681654433,0.3023100920556453,0.7241364300187829,0.026577966575694063,0.67306948544625,0.022353925469097195,0.6766880483421192,0.08083834250696621,0.5826939088428533,0.020561374789804843,0.9303570603719473,0.6379416423284645,0.9901761423119042,0.936125207975959,0.5902619031211668,0.07065111027197454,0.6300072072441941,0.02918598560383635,0.8748729496037587,0.38782570634596064,0.9620254595448055,0.5424916524778309,0.7949872661798841,0.28956538079256927,0.5111463565071812,0.8144515455414195,0.3489651764717089,0.9848896626302719,0.8986858975237347,0.9173940132706737,0.3046723980807233,0.8924844726260137,0.5449408467811439,0.671587392802097,0.12095205063054214,0.8243904590047317,0.42321048173493653,0.8243181293870587,0.27985931234225087,0.9414340803542307,0.7711691825176381,0.8439122769438632,0.2416382049384006,0.682053365558241,0.07248805187190525,0.5858465639435414,0.022763448442641856,0.9243091154989609,0.6206483732260544,0.9878348914264307,0.9247449987163889,0.6259072055080197,0.08762540739173182,0.8706946789761747,0.3671896367255592,0.9582273700536564,0.6075816946220732,0.8343584514703365,0.41482094762608956
2,4.0950284388549685,0.5340735518740454,0.8487473621004779,0.32504726188279914,0.7664837175615928,0.020971710244831385,0.9817198058721841,0.8885206385229086,0.8257613231169174,0.13376770987325143,0.8591010223377854,0.035682324883073754,0.9492652132416981,0.32986561720898777,0.7378558704287145,0.016584089384050774,0.8757601661520682,0.49373564573893486,0.9384623929972656,0.3456085067457959,0.7686526293596402,0.20370088443203999,0.5053796645138141,0.025607254304559644,0.8383288440185281,0.4685330750037848,0.8792529046325775,0.3381311750786229,0.5470528202168696,0.008559443301194302,0.9600840034354747,0.8348892284975685,0.9088971002098416,0.41771894060748666,0.6875043449437913,0.03768437509358452,0.5707427412912888,0.012983670071372102,0.6317982190751258,0.09089262060215605,0.766714874244685,0.04720281467272997,0.929153430891149,0.7357078840843858,0.9830512205483988,0.9411302587528907,0.5820930243681177,0.05745172283987024,0.6199279550952889,0.036223588837809295,0.8415296281447898,0.3449320687640776,0.944420841628895,0.5523975682270159,0.7979900430933454,0.2978280799098378,0.523570358621905,0.8422836189139383,0.3065890364086712,0.9811165510675914,0.8788133345679998,0.9497599383053882,0.3485055703600287,0.8656382803121982,0.4484425105852886,0.7387210374472022,0.17322881525487993,0.8340721410069015,0.4605803508833268,0.8633421710617826,0.3203204139703919,0.9548156346119203,0.8165897664386337,0.8947020151258012,0.34368381039516765,0.6483437111822811,0.08987786811747732,0.7469513014688731,0.04616602559058626,0.9233438971904613,0.6952096480178367,0.981826696364854,0.9357309763085457,0.6084370303922471,0.06725830421288115,0.8338011940671891,0.3283094202240974,0.9493100184234158,0.6170770901144986,0.8510290773088778,0.42977393384064444
3,3.976666193005061,0.5053166490424157,0.759751967601981,0.36712367067849216,0.7241806551835627,0.019077541089847428,0.9763619644935123,0.9004596484946303,0.7032557463248797,0.1679396682035217,0.8570307883228933,0.04298831275809045,0.8321044237874269,0.11875467073628171,0.5721504815842967,0.008781483938728862,0.7280066688793484,0.279667610007848,0.8962201284032815,0.5178516462141038,0.6640308435673489,0.10169041944700473,0.5013144609895148,0.028153027262511926,0.8147558589234273,0.3813964079213699,0.8467942893468595,0.23620520936467862,0.4883077348830773,0.006157576155764901,0.9656121482141958,0.849777850701363,0.8434542902953167,0.35717155885979784,0.5450708461089083,0.026380021347600154,0.5243698584028358,0.021123502071521222,0.5333346373588324,0.052053059271080324,0.49096775124271474,0.0185714009222085,0.918425518181913,0.709821437212252,0.9802198813181231,0.9164995481419808,0.44272663684981267,0.03609874321041173,0.6144095567206864,0.044176779775872456,0.7431354378838552,0.2594360090745492,0.8726817172907151,0.42136558230538884,0.7245643958522815,0.2649508609679577,0.5077980438805181,0.7476823418296045,0.3489380128299861,0.9780171292610241,0.9065821997810268,0.8288011841385143,0.12496442873445812,0.7183814415771259,0.2413614881898635,0.6375427506692419,0.09366357320088461,0.807582688093762,0.37655805505722395,0.8341204170186494,0.2123657800236862,0.957281349111813,0.8191368504215807,0.8264170964393402,0.30613386178693575,0.5622310457088354,0.05726399875500189,0.4726000848077128,0.02584644742061892,0.9068987237226779,0.6401842694692906,0.9799155770632316,0.9042391845084256,0.4792939399515442,0.04409344888163229,0.7253379261461587,0.22923275323054798,0.9091826831844867,0.49181871034310276,0.7732053986702326,0.3638989414146416
4,3.8944401201217467,0.4527670074021854,0.8641002464849241,0.49313830923587043,0.7568074640455714,0.021182264280030484,0.9882206615808958,0.9165401285612451,0.7765478409818752,0.15927191886227676,0.880922541661742,0.05981742502343071,0.8940754331961908,0.39469344452521493,0.6505422193708524,0.013590278381006323,0.7069882313282464,0.36914771000083263,0.9239445369159434,0.4601641541937826,0.6943520044014495,0.12600372579064303,0.5354752720966391,0.029463674462801445,0.8633242586100718,0.4773488460749704,0.8734411789318329,0.251597612511938,0.5559817351598174,0.008189042338365966,0.9618413320396583,0.8392046169579979,0.9319513807321332,0.525155495576174,0.7495117339407995,0.07896308191897405,0.6091680146040687,0.017227482367493406,0.6129425170119234,0.07454688488757955,0.614849462520712,0.0331988705900806,0.942087271485025,0.7714972100196285,0.9857538955349144,0.9397675107793315,0.4831559625844856,0.046647164987852825,0.620519348409049,0.0404489160713756,0.7711911296646232,0.29918302452654344,0.9533806952458963,0.6251490737645868,0.7769644757130515,0.31042837948807794,0.4692043351837166,0.8559634651250675,0.4588013093835575,0.9883930540206163,0.9185380729853704,0.8930189878284313,0.431894070100056,0.6929548681414457,0.32037080400281037,0.658191409058343,0.10554564701113003,0.8549977377223179,0.44842475519600494,0.8531115674160926,0.1971347346673083,0.9546565602134741,0.8169020133682503,0.9106249691057983,0.448681012728251,0.639874420751994,0.0796281663797799,0.5838742209700511,0.03149597150688144,0.9317108046736469,0.6814618348586914,0.9825797683753742,0.9262083746866774,0.5140311129512068,0.05618727721811513,0.7449279406269895,0.2671299392424237,0.9499144200210083,0.6530633713911822,0.813051581687616,0.4275917096704056
5,3.818593145355244,0.4626953354482434,0.8061307753781453,0.42137923414963707,0.6672191037246796,0.014267083741298297,0.9886833527718578,0.9402203598646102,0.8351621134794356,0.16104732352481266,0.894683991253989,0.1332088198872715,0.9118847113665293,0.2708428005212972,0.6295410902870924,0.012804723464963176,0.7879998887884945,0.34170168711900584,0.9595579449530376,0.5176049322341723,0.6722788383954558,0.11976358337703254,0.5575854164174939,0.03421560645160521,0.7231370955868055,0.3085329758775389,0.738906861570413,0.14413717560056755,0.5446557118124108,0.007636679306557301,0.9699308139435265,0.8852723784846672,0.8720799433442987,0.4428853841500517,0.604157216613964,0.04015163363867316,0.5566652893982293,0.02241412635599948,0.5441164432283512,0.06997718649582482,0.6577035950110052,0.029841935700109925,0.9125985381364998,0.7603719371068003,0.9782408751801955,0.9305876476690136,0.5368372122547902,0.04894905814471992,0.6756861213861141,0.07043520905231548,0.7774262749009091,0.2907205602418522,0.9439551540272474,0.4516835539282958,0.7594932451234988,0.2873328306187959,0.460128645695656,0.7997831082694355,0.3956204865281092,0.9871318621684035,0.9300873425933146,0.9132637761263563,0.2864324711120254,0.7809289548368865,0.3019427318628942,0.6431083877695467,0.1017062689735243,0.712004587353516,0.30260852504820035,0.7268083841375497,0.12614643997815594,0.9604390679069351,0.8561305855996413,0.8620492329999506,0.36443131628131087,0.5533381088635694,0.05375779089105268,0.6462534155048963,0.032266748090721345,0.9061547664299631,0.7027426631593007,0.9743836450657098,0.9168633615693812,0.5634397905357745,0.06311804978038135,0.7604910653433464,0.2395052665056466,0.9402895673859221,0.46397480638003125,0.7956167325436101,0.3835834283971057
6,3.7637228116405343,0.5405651509810833,0.876606099292908,0.46746861265543604,0.7620512636832989,0.025996363980683834,0.9906249919030242,0.9358849103916721,0.7924288146116452,0.1609608392371597,0.8930652405153056,0.17227926845974115,0.854680297355878,0.2323907868453262,0.6339802867550015,0.01313366891890761,0.7359824912901644,0.36831077508969723,0.9292351533705862,0.5146724393282583,0.7114511124581562,0.13561620480325765,0.5631032970537815,0.03749453814621592,0.855318928701542,0.5381844291428074,0.8550047142628918,0.22780625557156028,0.5896150951546876,0.013893138717980128,0.9737487349751268,0.8955389518345175,0.9190114501707286,0.512887998054226,0.7058550830177127,0.0654151169577458,0.5399202787621594,0.02039501737376121,0.6764358261668627,0.13549386889252352,0.6739350882471746,0.04391836415755522,0.9331443560324328,0.7602987456798489,0.9865665253602297,0.9415094962323373,0.5263238039576831,0.05449189898879576,0.6573421015212568,0.07968784020084234,0.8042195713740545,0.2875564510984425,0.9321715987730371,0.5920690547498634,0.783531623260282,0.31666750136573707,0.528416600581549,0.8697597716765112,0.434541649418069,0.9901932240852752,0.9320165977000003,0.8567635658038164,0.22276582928628022,0.7290631549097495,0.32514691929210815,0.6736256933147644,0.11938879415694645,0.8396158794906898,0.4880948363555538,0.8433930346486452,0.20146531605164267,0.9651759281899164,0.8664556607827694,0.8905234713548962,0.4060705132492957,0.6672854351619248,0.1285030497925283,0.6635954221178169,0.046341498749190344,0.9240559411532411,0.6942559801098399,0.9833406517068494,0.928433068917963,0.5552601818627902,0.07123021281643516,0.7859436514465596,0.25213891169600566,0.9418465178548749,0.5991719038070856,0.8237150952986451,0.4197512963863571
7,3.7043531090598902,0.5326342380448831,0.8014520024231381,0.4124317545106561,0.7313289551249009,0.0248382297800993,0.988801196758688,0.907180448666323,0.7184969533169131,0.13881506723479548,0.9072509159673796,0.2290958782915118,0.9075739046489977,0.3005636078690759,0.727855850869013,0.019083077586694856,0.8529090080280156,0.48140226815519654,0.9265075496373796,0.5767895306976647,0.7393441885322704,0.19063101483507428,0.4757651347526213,0.02620804738719658,0.8028366120293643,0.42457183479658434,0.7916156965222386,0.20761778614340748,0.6089465993041001,0.010966697839011528,0.9752174984700492,0.8982436866182429,0.9150220686598162,0.4606792446106086,0.6922390694016992,0.07774337251768731,0.5042189210672423,0.030860616337218472,0.5572387818582718,0.0750957718025095,0.7833619195512213,0.0687949751109971,0.9321284931516356,0.7608549269977443,0.9828783838879686,0.9324801415534724,0.4509096437505712,0.047756570089717856,0.6211987356906538,0.09033510921459288,0.6160268809731537,0.21642006232203556,0.9480800067133914,0.6937154060297179,0.7676617296573343,0.3193528894999168,0.5222486562692749,0.7966076508182278,0.38840297306956156,0.9882051642615985,0.8990205387227801,0.9035355671245516,0.2936151281895604,0.8418073384728234,0.4279447008371114,0.7055467348489399,0.16974356452539907,0.7913615480053265,0.40483513422988293,0.7727577868699513,0.17297511153159706,0.9663158182894986,0.8660452000470342,0.8890423621294755,0.3777789917495381,0.5730265881945189,0.06901300603659477,0.7511361892200552,0.06686348623826818,0.9215716767704222,0.6720363796612728,0.9785572414357966,0.9186173598386431,0.471041781672647,0.06278781648306359,0.594341090119519,0.18367012405357616,0.945368707387446,0.7050986285405579,0.8056389528512998,0.41740300898465255
8,3.6766782271121086,0.44830219715662084,0.7813238225970895,0.4168909962249419,0.5845940857410266,0.011461578935807445,0.995097774301054,0.9701124546155753,0.7344414250738459,0.08055405540826875,0.9303658698735374,0.27397723942311686,0.84126276863047,0.18900935289577458,0.5209389659079295,0.008259102581570539,0.6762250371744379,0.21935758660456173,0.9051003893710616,0.3548779503484421,0.5903788336408687,0.0818164105256298,0.5725558146952119,0.04033397275110577,0.6744900958079499,0.2768198719647997,0.713495237239396,0.12513257522819202,0.46805839889034007,0.005707161403734577,0.9667560220669161,0.8801077864484467,0.9206807823765908,0.5583308697680593,0.6175830449186851,0.05720209486451703,0.5413082474364073,0.04129186177644907,0.579459973486182,0.11099967137091211,0.6166869492279918,0.05105035320543391,0.9387940493665219,0.8007721622093995,0.9898890743555508,0.9378567083238329,0.45489964394745974,0.040970678299372884,0.6786740986313495,0.11591056196395058,0.6911571672175505,0.25510310101150524,0.900744729114007,0.4990005860060123,0.726344703888055,0.2847271824676697,0.441272358798132,0.7645688128948451,0.3858372425105133,0.9942279024874598,0.9631739467413196,0.8352809275902465,0.18475451818383057,0.6644811381108516,0.1985461597015194,0.5571259010692389,0.0682559256897018,0.6661657541774926,0.2639023244714582,0.7078081161219844,0.12084105056014094,0.9540459451015976,0.8463556236356372,0.898935591768137,0.45272163777111507,0.5865842656200186,0.11433685463275707,0.5766057317179978,0.04711602205592468,0.925530919823196,0.7302365972974942,0.9869554731954142,0.9274640439302789,0.48423862207501456,0.050302551077561916,0.6668801105867223,0.20486526273920208,0.9113018242618307,0.5237921519138283,0.761296064787628,0.3801563695570177
9,3.635159349514362,0.5711432264128774,0.8442016575277972,0.5137582674710414,0.8097296564304691,0.029632141082424943,0.9963520258546932,0.9788561538463518,0.8274903536017447,0.1897999813530832,0.9314562403971162,0.3092561457901118,0.9409585408376537,0.5200772198872977,0.7517952749629466,0.032074317223253636,0.8871047271126029,0.5799212083912497,0.9567206634169542,0.6308517100363003,0.7743573862492311,0.23751501107156164,0.5494330074153809,0.039002956249420635,0.8906226172079738,0.6374457114596979,0.913698975176779,0.4554000544397586,0.7111967655168457,0.030264615985992484,0.9736130006472811,0.8801323503292948,0.9444910279593437,0.5825133438028097,0.7545835556216179,0.11622085194888017,0.6136409544790247,0.048847786155430686,0.6743163022054123,0.18870038972498793,0.8041296565738169,0.10723564145307292,0.9439261950562533,0.7862675094098391,0.9808514282900042,0.9356467558327305,0.5616476327121809,0.08253540815197691,0.6889930185610946,0.12403759875432782,0.7490008927557016,0.3270206957195839,0.9631494133009285,0.7119484482604412,0.8245177296104172,0.38749854899349706,0.5810203542162306,0.8400213385397738,0.4506248075688592,0.99464527390577,0.9665183076247702,0.9354941901225299,0.5093441969779615,0.8736063455413313,0.5157224765395957,0.7369591494637086,0.1944967568475479,0.8752306673916478,0.5887059606555517,0.90016505009177,0.42367147538136457,0.9662612154196542,0.8502953157680844,0.9144733156481192,0.4326132269925895,0.6665791924459313,0.16424921039967405,0.7782182922779021,0.08193664903660332,0.9327643710202513,0.7164499005193055,0.9747235512843555,0.9169562492603782,0.5928270770080044,0.10783703559193228,0.7057609011150081,0.2629897589208618,0.9628575046656218,0.7127933746906262,0.8531617147463362,0.4934502939234816
10,3.5906523510230692,0.5233521325343673,0.8559811887300421,0.43126863003476024,0.7533064465990621,0.025590340493859786,0.992757418854387,0.9509333036101022,0.7604880091813588,0.1501235906787765,0.9330550466847891,0.3275071797118939,0.9031333104547745,0.3322264942103816,0.6636007038558527,0.013268684856127921,0.8038688395408523,0.3848218174473603,0.9406866008798004,0.6059363686983648,0.710438383656407,0.1433356862093452,0.5843132799106965,0.04404292481088795,0.8452844297909151,0.4691280185369214,0.8477173862395825,0.2612429211294326,0.631850209411185,0.016023428073738556,0.9776002270765299,0.9015571249583229,0.9365418485245168,0.5741250651237904,0.6806907689260631,0.07121688252363648,0.5587786722051918,0.06304154496075882,0.69045387108112,0.16039859460281675,0.7864236245641224,0.10543081766212972,0.9463620327282528,0.7928093462672168,0.9787479105459398,0.9091037878624755,0.5131944013621716,0.05509074649596681,0.7318367870861405,0.15039966463909266,0.8035324295010203,0.28548894928377566,0.95449159758223,0.6722362295094354,0.7994282855758849,0.34216723624582196,0.49519781478544367,0.838128197093751,0.39784895358223116,0.991144358223775,0.9348105836536416,0.89829197743895,0.2986454534829615,0.7927261614885964,0.3293230088174475,0.6716743957936375,0.11944105665958042,0.8251088201033699,0.4349825497077999,0.8315206236281165,0.2226195927642263,0.9689781374622587,0.8708182881085496,0.9101982171985963,0.4647128822770743,0.6737075973262323,0.15311809493648365,0.7725236884938134,0.08824186410791979,0.934488828060076,0.7049047556587873,0.9713827327337576,0.897775169237508,0.5380664044530316,0.06805105875822962,0.7721070009926505,0.23036296757908764,0.9519868675262269,0.6474603657292808,0.8338771255010524,0.42894479031630056
11,3.5725329558166656,0.601691928093056,0.8327782579198818,0.49704658346441133,0.7485924235184135,0.0218012646599664,0.9932618876727269,0.9549568485463221,0.6926271823518969,0.09265385627889784,0.9335706476775794,0.3318114555841914,0.8711519206564067,0.3260835198506265,0.6544761643034472,0.016984414628298694,0.8323588713868386,0.4902106510476046,0.897258723695161,0.44422857964592394,0.7100688961300036,0.16087106723888428,0.5848712524418929,0.04978799699215525,0.8770231760473741,0.4909825768312265,0.8848102194188643,0.31832965344538144,0.627323215448842,0.01789985348620283,0.9795105928360918,0.9143181531153548,0.8982220542647908,0.5813270504500665,0.7240905960629144,0.08792863633626753,0.581590613958607,0.07450259322886044,0.590838235311148,0.11820853246417448,0.797682790358347,0.12959560590556846,0.9271594527786163,0.7559783738258662,0.9827525513716935,0.9466661276778998,0.5742058146765938,0.07995732986465597,0.6807397977064993,0.14348290885586545,0.6775203640595656,0.2553296475969626,0.8531783227350772,0.5738869998823902,0.7849101547995873,0.34133962618861635,0.5710635298264164,0.8175354487465972,0.43614797643381986,0.9914507518891305,0.9405423522310877,0.8722210286355269,0.33750982360244497,0.8183568282841898,0.4203194965697815,0.6685610200589887,0.126450333466694,0.8599164115420257,0.46058801800289023,0.8688250401175197,0.2609397967636367,0.9673169199624951,0.8603872118903371,0.8695470498096918,0.4561862555662988,0.5895458219401881,0.09598016849515816,0.7735562527477958,0.10806355045290657,0.9106678372485564,0.6479967758824744,0.974320130684158,0.9274355271692075,0.5891938464133468,0.09991487785047351,0.6369394290735957,0.205312472685945,0.8779304885865968,0.5826050958492727,0.8178677691087751,0.4353987333070268
12,3.5418562355171486,0.5907942662436847,0.800694524730133,0.49257114469957874,0.7961615068007257,0.03308491332784922,0.9954092739600525,0.9708795385147417,0.7208448093501963,0.16488431241057874,0.9261654946223851,0.3825807115355615,0.8547343722105017,0.3617003044846662,0.69189967975879,0.019549625037879145,0.8468157131810231,0.5246889565011418,0.9353090447033645,0.5851454623287391,0.777933607917332,0.23251697457886067,0.5323699318263365,0.05670103333381372,0.9052879868683189,0.6074785472884707,0.8876401203504009,0.38204156337314327,0.7414011143847428,0.031671968712302746,0.979803478221342,0.9118177212513763,0.93540959763955,0.6022159058662367,0.703109270583319,0.10951858471734166,0.5671256827465079,0.10125519017388715,0.653947393753648,0.16752812508097248,0.7246587429002448,0.12898463758678716,0.947435184124858,0.8306198721965965,0.9887057287788296,0.9508530775114843,0.5218869967361076,0.0825618883726772,0.6578610844361577,0.14774407278725976,0.6944639756197242,0.2909807627010953,0.9650139326602828,0.7191697683368597,0.7981572403409568,0.38033633318115,0.568420125121156,0.7693634447549436,0.429744457091926,0.9933301776304236,0.9518159103520956,0.8445796715349927,0.34110995112858794,0.8312570751008217,0.4498155368605508,0.7347074439264172,0.1869660742037001,0.8879051274347795,0.5504075527010648,0.8664860530128002,0.3211103234915756,0.9685462204217284,0.8664022040422248,0.8962370038391195,0.4544866653579187,0.6502628525922134,0.16454966636292775,0.6854912907335,0.08901686030416323,0.9327788706178165,0.7202308487498645,0.9851072236517697,0.9342260287393243,0.5478746894838531,0.08995620130101348,0.6435557095045887,0.23481470883697192,0.9613147490425951,0.6937667859217435,0.8249248502051476,0.4674012359653533
13,3.4992251008199253,0.518006109740336,0.8925201825120898,0.5025671052944589,0.7599492875957775,0.03133587615318964,0.9939559558320676,0.9518520641378282,0.8068712335692205,0.15997682784249473,0.9460978312256234,0.27854884209975506,0.9083257355510579,0.45700161493781877,0.6891714681658525,0.01603480366819927,0.7900756203592582,0.47797097432399993,0.9621251188919272,0.6454722754905601,0.7166268225939033,0.17914257433835631,0.6445238308814735,0.08734308669705995,0.8535266144265463,0.512778877691505,0.856363660569268,0.2721641158556507,0.6346292865170245,0.02184750621362036,0.9815496463388403,0.9200719905510876,0.9536111257675549,0.6141669335171027,0.7606741585980341,0.1110255622761065,0.588200625107153,0.11247808434476322,0.6578856713919436,0.1794335238660439,0.8086148418887615,0.16917659785833383,0.9623587615223831,0.8633152465402727,0.9936049929221585,0.9688626572470938,0.5346695109325162,0.0771757917966554,0.7020282359249704,0.15936424322954343,0.6761460972329649,0.2923365435998402,0.9583326412125869,0.7268552184512064,0.8089399599050368,0.37647303607779026,0.4954621552559697,0.8669257642553301,0.43644879982573587,0.9907516118511829,0.9056474877815947,0.9014826608288969,0.42331323857295367,0.7746326238128399,0.41663791645470205,0.6693723771384623,0.13851943960627003,0.833106319158395,0.46785076482395027,0.8223075885723592,0.2039242399351455,0.9668116349149098,0.8521376504645862,0.9171531199024566,0.42830683062736286,0.6485497468704402,0.16481967169147385,0.7949819068207773,0.13177808311037612,0.9459638380036725,0.7395733987766036,0.9895334366247813,0.9492560228175126,0.5386998957279112,0.07775417031479194,0.6301116290854625,0.23542086191025455,0.9455782681391454,0.7162882839036279,0.8272476513566889,0.4554798037885589
14,3.478460055150572,0.6137939137586652,0.8407581538145337,0.5323482730791195,0.7215683087124495,0.030094445761643208,0.9954809407319231,0.9734557703470794,0.8104612806621311,0.21761298978148474,0.9328369873537407,0.3959232348961687,0.865653319194398,0.368589836939979,0.6866222889642697,0.017510101702490944,0.7988750878259085,0.5005320465747105,0.9640068808702889,0.7424660802252179,0.7421991219299691,0.2563478236946075,0.5375785143324163,0.05069133064184535,0.8088131357054535,0.4656547961039876,0.8541722177528251,0.32995653993474583,0.7188536214129265,0.03538856779703553,0.9808472091084994,0.9076728860738642,0.9170852454191729,0.5091220318708527,0.7038697557728699,0.11454670146389928,0.5928021742606179,0.12857260727525927,0.6052808907114203,0.11709831838661956,0.8054508138442135,0.18558203093658365,0.9571091392880539,0.8384568457457257,0.9852161120820528,0.9475027253845822,0.5240016217302568,0.08832931419682416,0.6650050242928438,0.16087486120900107,0.7542818392442481,0.3268719295819584,0.953305493180795,0.6754550057133797,0.7970051991614724,0.38140988828148714,0.5856903691955239,0.815917665739622,0.4672337259857022,0.9917541747044665,0.9475232926165601,0.8580762724513659,0.33825503740901974,0.7777251977935291,0.4207121406150964,0.6920198595938911,0.19245724801136566,0.7899823907805449,0.4228027307737899,0.835510429706981,0.291574131690185,0.9686821388861524,0.8516848488997517,0.8726279019953534,0.37429849492052,0.6128407526023995,0.11871682632477089,0.7536782527183127,0.10605339258073619,0.9437429829766194,0.7039996463590079,0.9786942808238136,0.9303055766582766,0.5402651271199436,0.09209799542726069,0.7017593487955893,0.2603329504598566,0.9486267980760752,0.6849169564113611,0.8176189734227912,0.4501853121964538
15,3.452596742949129,0.6270414757372812,0.888148329205788,0.5182106139158922,0.7973080283219927,0.031912259876012816,0.9952854137586605,0.9702424616970052,0.7064730052180941,0.10037218247959942,0.9447497340739864,0.41819896519046434,0.8658535109318851,0.2861845611828773,0.6796381308553799,0.015811245703139992,0.8485026808555456,0.5377814338701925,0.9037182707169185,0.44458346036191504,0.7097013435076923,0.18838050237451598,0.5884480275485389,0.05800881213892621,0.8993369392959638,0.6248132540053979,0.9172129196953964,0.46265763693342216,0.7274652978161164,0.03566188328634527,0.980397875966587,0.9101420725458043,0.9488394324016429,0.6023302393593912,0.8009974134541609,0.13037802983141447,0.6451948177686002,0.12236976637568917,0.6756816205217762,0.17106301794213793,0.8206504983224381,0.177467345557284,0.9611684574629493,0.8647440988376339,0.9670964913883623,0.8976777221952985,0.5499291990573124,0.0969555100775707,0.7239926505635619,0.16978370130130296,0.6731739474378131,0.29716125769466706,0.9754790356446139,0.741355151504786,0.8151708873766067,0.3797787379322572,0.5856022557053485,0.864620489561981,0.4583994292723176,0.9920800439421728,0.9427324374698668,0.863977289688768,0.29178694470031236,0.8330161441713866,0.445931892035321,0.6583383233625635,0.12778071550339049,0.8824008951653488,0.5663960727797525,0.9013314690984837,0.4050503648053619,0.966161330924593,0.8507634997707181,0.9162310721523784,0.40980355237834293,0.6648407869968,0.14110077690556722,0.7861648963706982,0.11379592979494053,0.9448748045042005,0.7521794041257294,0.9602715457845789,0.8768979919642708,0.5567980034961818,0.0955299504789558,0.6240524517185362,0.23905431078719966,0.963997948471215,0.7249028494697496,0.8361973434631179,0.46513163264011226
16,3.4234870679929523,0.5580719069439549,0.8585721594893432,0.5407736829625518,0.7904283601340176,0.03405914210454466,0.9957249037688025,0.9751071163999624,0.7894561615474157,0.15948959292490528,0.9536938600638222,0.46479826990959483,0.8975577442756562,0.44241391644970735,0.7428975056979856,0.02123127985711624,0.7213142480300665,0.384032940642873,0.9552504904291997,0.6651572590968126,0.8064738302550504,0.2250134826266402,0.5901900938882909,0.07113194653932872,0.8862182936901878,0.5458921524445798,0.8752804546612957,0.2546897566756293,0.71941277121364,0.03781344687890368,0.9839147191096942,0.9312652042962574,0.9290371015769513,0.5767694608107816,0.7270432374238602,0.12422954803547002,0.6027278482129761,0.11244506764398478,0.6029966144072114,0.17085662356939552,0.724657944306594,0.14657016711648616,0.9504174103416221,0.800499355841952,0.9901749311259305,0.9568842649188403,0.6419207612677841,0.09433627515635623,0.720956733503697,0.1972178989030831,0.644468632703148,0.2913028634876431,0.9400556055200818,0.6558362969155642,0.8092631698709357,0.3799929620080371,0.5471847739888978,0.8232017939066615,0.4538679423996453,0.9928091565558738,0.9531783504224141,0.8905310757206374,0.41811452175772773,0.7025433898820482,0.3120512754144614,0.756360197338885,0.16363881059272922,0.8684656249608584,0.48436541295596824,0.8574203841104089,0.22837839194613754,0.9700995567797239,0.8777178513980685,0.877180471569096,0.40048248394686703,0.5939086193690744,0.14314520830699953,0.6724228384222297,0.09040243534152134,0.9268697159983726,0.6708805343015359,0.9840954679929226,0.9325901364598433,0.6424709418223081,0.10191507055571136,0.5984250693171559,0.22241653824008606,0.9326262183286839,0.6655541781035504,0.8180894076296839,0.4449186963839542
17,3.3985902719920116,0.6351486311831747,0.8604831609957049,0.5244360970345071,0.8080976810940386,0.034325061704332055,0.9940104339467513,0.9752284830171023,0.6699127672749672,0.09349864957266751,0.9326498049875901,0.43781112845307113,0.8431888429567098,0.42151517885136985,0.7159298730917677,0.024269479648102422,0.8955890173614672,0.6412923757468583,0.9081678754012603,0.4981960222735007,0.7598431957241857,0.2440485735720897,0.6142147819240122,0.08068241023816321,0.9181113815061771,0.6277922179079327,0.9379144771376079,0.5379831300872173,0.7745453870478928,0.050876036128394815,0.9850515192232867,0.9266771549271097,0.9549252287020101,0.7072956585510055,0.8432259781740751,0.18665588827276017,0.6778635356466007,0.11933945164561005,0.6611881008891597,0.14854369003918985,0.6535437464449702,0.08207688595955531,0.956830107432354,0.8861457932512218,0.9886673337614545,0.9606090376387153,0.6466578351619204,0.13076737616763728,0.6640846549534971,0.16687198423188473,0.6892084844700015,0.28128230925297665,0.9854567705696309,0.7295487712792407,0.820744691379965,0.40452957097893133,0.594149264252357,0.8237148037928503,0.43305084222673723,0.988398566597875,0.9486850918034347,0.8427238578129169,0.39611981461985374,0.8835004986145256,0.5473619804910126,0.7157243045488633,0.17608551804006412,0.8982913154788694,0.5554542315774044,0.9216940788915691,0.4511994788581734,0.968300016915606,0.8456918013645849,0.9061844425038307,0.4926916118239292,0.645287900975875,0.12007377459681565,0.6035035644386866,0.03739635682345589,0.9295191620710997,0.726688467422427,0.9853632529677332,0.941305544864358,0.6510312202901217,0.15454949070396928,0.6309829645772896,0.23226829091339418,0.9760288274907846,0.6860040098252872,0.835640548623031,0.48403914412218135
18,3.3745316344469476,0.6325049935377747,0.8406424975078874,0.5378301881850605,0.7961301215078022,0.0379822618707102,0.9968074643698182,0.9816010230801004,0.76794898799732,0.14273625874926288,0.932124896584328,0.4302731393426607,0.8730683303740414,0.4274592675074267,0.6776712806372159,0.02314675904667321,0.8296693198636913,0.5662598774110672,0.9556678754012603,0.6899559808381639,0.7408471428757631,0.23959294439129786,0.5827859257265877,0.0907023794874206,0.8961231967687767,0.6606517767230535,0.911226150536898,0.42402526981597866,0.7754953477305632,0.07897812865396431,0.9858664356943754,0.9412346608300415,0.9320572725714765,0.6145366283430848,0.8040073472599424,0.16161205695103073,0.6641351660809233,0.09976936970064978,0.6375558656104374,0.20346943984403515,0.8287604744573684,0.193343128785079,0.9480681801970204,0.838655872557323,0.9845614723936322,0.946489152009802,0.6078221807414749,0.13128280219639904,0.6833679447112497,0.21993081757341854,0.6584302388783476,0.2765989216775017,0.9499426276844127,0.6924541658350644,0.8177224516985622,0.4096373950540873,0.5925632214292008,0.8005272300137638,0.4439857427977997,0.9919973882927384,0.9462738052223192,0.8673107888678314,0.4016455396957959,0.8081170798346482,0.47429878369207823,0.697299408565429,0.1857343653008427,0.8767680639484218,0.5786990782065997,0.8962472307885424,0.35719168829858583,0.9675478170037555,0.8628501706486518,0.8781967672307265,0.42150372000600156,0.630705171198129,0.16184363945451904,0.7716513310388424,0.11267605046101307,0.9309288925520116,0.683490953140413,0.974749336227314,0.9128747483564587,0.610332328947772,0.13510266404628035,0.602688655720249,0.20707093192534495,0.9490470402252048,0.6675381379099404,0.8283821581534612,0.47204875119766526
19,3.333752055241546,0.6121196099165785,0.8819377427416273,0.5595669252780365,0.7761426612500282,0.040882284474415984,0.9958098800312929,0.9744685261715877,0.783238539457184,0.17203036580501876,0.9522594846944805,0.46634400158279504,0.9025194056471781,0.4459536940092339,0.571125492109861,0.011923938455686489,0.8161820535810799,0.526578041811415,0.9516696513494234,0.6718858039216781,0.7206989601807818,0.20672414070773426,0.6435044153410676,0.0979008496330758,0.8813315348987311,0.6305490976079904,0.8664425905956279,0.31707568160903965,0.7121688653997374,0.04016680434044684,0.9861233169694169,0.9343865116853196,0.9554782851598843,0.6950391438196591,0.7658487225961274,0.16078049262733035,0.6394823363000514,0.1504400510617383,0.6784258462823909,0.18920292933840588,0.8158290535583272,0.2780993126758945,0.9567503708253471,0.8835925507328801,0.9840764662640605,0.9464810648847369,0.5281297109304359,0.0998055203381028,0.7257274334900786,0.22264359390007463,0.7468784555368663,0.2889925201731297,0.9717309051796017,0.7594875532636178,0.8157504684757958,0.41426928461188633,0.5715040972772931,0.8365970984261019,0.44590045128230416,0.9918905037109218,0.9474852320750173,0.8910297436778853,0.39856537964507166,0.7897176259502244,0.4269388038861498,0.6627125458313801,0.1348880967877759,0.8580848845706486,0.5378716623319846,0.8437020794954523,0.2623608165729742,0.963745583201822,0.8381697771507661,0.906940073487008,0.42915518142612114,0.6522745943114306,0.15164322824140677,0.7753601509542603,0.16971678458431858,0.9273813243477526,0.7117183961868045,0.9725334995703773,0.918838462720615,0.5422112199834391,0.0950756566875454,0.7030450637685761,0.2040494587304164,0.9575815045640165,0.7235013879672575,0.8296754684907061,0.46224242351728306
20,3.305162938721605,0.5692926800610975,0.8469629612062846,0.4527611054761245,0.8015834958400712,0.049638249131882126,0.9956717064065445,0.9751246896228638,0.6392752992489839,0.06771945298371326,0.959061133435764,0.47267176068667693,0.9018016682496974,0.5025516000566661,0.6293144422477813,0.019720577192071435,0.7934454285835051,0.5252607476305807,0.9262639698014505,0.29649662745523236,0.7027787931626752,0.19905267498323398,0.6161227723956464,0.10004588441854564,0.8743912676797001,0.560607635667652,0.8776617398696839,0.4055673829998943,0.7180268437802684,0.0357421041873484,0.9861623026403025,0.9421118264546171,0.9432259989750853,0.606931583427262,0.7336569620306646,0.18588031200424296,0.600317714462423,0.1507106328425455,0.6851894863649838,0.18888009606485384,0.8180479588976729,0.18157338834311304,0.9424964575431485,0.772842227246227,0.9754007706772129,0.9265073355951571,0.5265369451178694,0.11109074231286173,0.7069004168635996,0.20349478081563016,0.6880930685763782,0.309063926283591,0.9481568698682842,0.6930438135572928,0.8014056336125263,0.38211889067076454,0.5482421358710019,0.8023521927659345,0.3560983954545467,0.9911297020303449,0.9410371180787457,0.8882469277078462,0.45768011508925,0.7593398656231412,0.4235099732793637,0.6448814220437714,0.11981826752120495,0.8495911771685136,0.47036804595564047,0.855287497582771,0.29800037826998665,0.9656695862113085,0.8596403159731608,0.8790723501013331,0.39784210845173423,0.6760844488363449,0.15283256557388747,0.7546815505069817,0.10450646576003922,0.9131280067118921,0.5935038564292274,0.9667735225038089,0.9059180513907512,0.5316318198546325,0.09452442517103529,0.6340873628690968,0.2198372641482072,0.9419966843828306,0.664321221080975,0.8158721323062845,0.4412149104767348
21,3.2685107718678257,0.6357067324638703,0.8862096899593528,0.5848933564209624,0.795340577745743,0.05559551982090245,0.994317991693387,0.9739542005572203,0.7279946166676345,0.08820876766546815,0.9563873951069614,0.4215485020244326,0.8342226034040082,0.39773898538206065,0.6538503761086072,0.01764132265402643,0.8110886619003933,0.5058313632840037,0.9541651185946973,0.6295390752264489,0.7385181603853611,0.255649182799686,0.5918106885141331,0.10680212416791415,0.8984061497486054,0.6363346942927972,0.9020924979745073,0.43281010447704393,0.7506690695798613,0.07276583290670233,0.986374539253156,0.9443981291111042,0.9554701931787349,0.7026044579515219,0.8537955700585457,0.2678696303263914,0.6447516008810251,0.16156265090056293,0.649274488947461,0.13073382912447137,0.8094530818501817,0.17243608399051952,0.9459841552411589,0.8456435484989739,0.9860742774357784,0.9503885818147357,0.5765694061915139,0.1555805186834977,0.7210966414091853,0.17856741935076598,0.7194876903683309,0.3030680819838647,0.9740220441716133,0.7697810002152662,0.8199010494757668,0.4139210370627441,0.5848973477839458,0.8327827092153663,0.4736546422225141,0.9883986986356537,0.9406903142160051,0.8145876773607009,0.35999642316970454,0.7827427608105587,0.3946898090400698,0.6766200978768174,0.1474694823034049,0.8655615964937355,0.5379927675362024,0.8856423807245919,0.34782155723337255,0.9641406077373001,0.8566318709058875,0.8961005750440757,0.4489826021633636,0.6289059141171817,0.11592136337412463,0.7565507020916635,0.10506592448098058,0.9153077084693856,0.7013076958341307,0.977121626817554,0.9224731924579448,0.5688368295151347,0.13225388091302512,0.643213894541705,0.20863520510439165,0.9522890683250232,0.7139097536467168,0.821800177986028,0.4629685302876149
22,3.2587714947120183,0.6024850193866761,0.842990268131892,0.570753560784966,0.7774256848372738,0.035225674103677926,0.9890328025646761,0.9520822595071831,0.6934548461852451,0.09267348716468254,0.9706002541070795,0.5244957146223184,0.8650065077639805,0.36215899847529925,0.6471493446766562,0.018862038567560916,0.794478716854814,0.49304187741541006,0.9213720871477826,0.5122223324425289,0.787357250471734,0.25596041727776675,0.6255369174341188,0.12185052387848355,0.8742492457776998,0.6054194442401271,0.8786346182374218,0.31220714764775603,0.7454885642256173,0.03845250736175416,0.9895023185978974,0.9556337578447889,0.9223602600125823,0.6597222658882006,0.7393808293462273,0.2378935150469891,0.6176537497604058,0.16723679980955278,0.7175152169280798,0.21373087118669154,0.7537235072996612,0.2100714356506206,0.946619225698939,0.8679675157663951,0.9656776566530846,0.9194294604947515,0.5154099897915136,0.08899495365810495,0.7703011346340252,0.26502344746107837,0.649483469807168,0.28449384463497596,0.9500895801994644,0.7339770916789026,0.8057882325825017,0.40383003625425257,0.5443651423032866,0.7855020372906845,0.4327986232596531,0.9839252917044624,0.9250455594853397,0.8541873408446372,0.3353667741629136,0.7684007968716374,0.3857488360457787,0.7382754954371421,0.15614639710069989,0.8433850983417343,0.4949096563751353,0.8565199663114613,0.25817925934348995,0.9657358896961196,0.854956082437688,0.8673440872617029,0.4359976310236831,0.6831002451262475,0.16449307365669835,0.6518933885537337,0.10386547000411972,0.9198490677185225,0.7152391953037016,0.9536436020351904,0.8915110929634599,0.5178738461066642,0.08660105416829043,0.5931598520164918,0.1933126536455596,0.9423616413425635,0.6998722085819715,0.8078223529161872,0.4458777229723864
23,3.22337330630041,0.6628187052050288,0.8778730935461446,0.607085342919178,0.8052748614944264,0.048564794420302294,0.9976146705812858,0.9877884487294477,0.7621753619904504,0.13077618752498837,0.9678074400189103,0.5359292938638132,0.9103918488821454,0.5409255187531657,0.7137529394563674,0.03405531970108695,0.8462593221918575,0.6197063609396694,0.9351153251694211,0.6423596606798168,0.7667878567459632,0.3061630716212983,0.5932281076824941,0.1201241607216176,0.8802201828010808,0.6664164178952601,0.9116797348981929,0.491473198127747,0.7820050150688308,0.054065959903027094,0.9895283570180492,0.9472952150421168,0.946670276792393,0.659188347475789,0.8343930835280318,0.16589633958193029,0.7003219567106949,0.17767539041010166,0.7100394594979571,0.2488918222979407,0.8035370485627376,0.2514850698023084,0.9600120221828166,0.8954514148694492,0.9844755921338408,0.953622501567847,0.6426421210396608,0.1553148751660519,0.7388211987607245,0.26831988173238386,0.7182329342002756,0.3492959830727369,0.9642773148418804,0.7080931627310832,0.836274504838332,0.44484475921346767,0.6021675918583135,0.8151703437708883,0.47826887864973133,0.9928052614414037,0.9572611426422531,0.8953811587188869,0.4612142702803135,0.8138318566985435,0.49516908420487543,0.7076601954192461,0.17300055427370398,0.8446949802829246,0.5547571225632841,0.8855293646674064,0.4044974373209225,0.9668411685426246,0.8382916690730178,0.8854627539503386,0.44846803215574105,0.6600725324994015,0.1656452889852331,0.7253465799859,0.12947633284650714,0.9328387169960018,0.7014509526839161,0.9738137219882617,0.9309779435652041,0.6438853237034993,0.15135261485989981,0.635116897028944,0.24614474877063608,0.9493832339445086,0.6630050423782707,0.8329896306024237,0.48743631970334433
24,3.1792326890936247,0.6517154270943485,0.8966158979646974,0.6671865388583792,0.8153999726157328,0.05192324403722548,0.9942097662679974,0.9778264876108991,0.79241715795062,0.2207071006070317,0.977510637040539,0.5967135385905636,0.9647241394637716,0.6762219563466912,0.7441959642468219,0.02864304456757494,0.8854657865251843,0.6567534534556989,0.977808375936274,0.7549055960367789,0.8078661960346675,0.344707409078947,0.7085352878443568,0.18569931242131257,0.8682532486264574,0.6142219535094445,0.881364124150339,0.39795529746905467,0.7687052280236376,0.06677878529286187,0.9935624058978856,0.9708942501240772,0.9563782700826963,0.7345769276304656,0.7696839876770671,0.18741225441054588,0.6816517291703287,0.24963298328398492,0.7342456047223431,0.2709699795970543,0.890672503441681,0.3426582396542152,0.9603982280582632,0.8972754589373915,0.9811914212752539,0.9445972570909628,0.5933159628705312,0.15167205580704218,0.7871654351683476,0.31992530326705537,0.7588094041445759,0.37938560041543967,0.9420488269793771,0.7236789721788358,0.8512382908530557,0.47742011539536666,0.5863071636267513,0.8499559482153601,0.4976882632744876,0.9884837969839929,0.9445727006556784,0.9431739028174173,0.5701554141699372,0.8565927323717871,0.512093898663619,0.7374180050988087,0.1945719643275318,0.8305512408039742,0.4845553101922453,0.8529344099756071,0.2954925896738847,0.9682586845545603,0.8630923327621828,0.906290883327017,0.491403240221341,0.6682478169477086,0.13910551643882893,0.8270900375217763,0.18081899119382897,0.9252933822983797,0.7314467677701818,0.9665818038691065,0.9136539342354354,0.570499049283896,0.12127947147550362,0.664034298561699,0.25994616287379646,0.9389541312231324,0.6832575527688629,0.8433975077408891,0.4926958819185841
25,3.1399284489579773,0.6079485371871696,0.8523201014433818,0.5043140173263324,0.7959505545074492,0.05014520557375571,0.9907555400680886,0.9696986114845592,0.6963372726030839,0.07470249603264312,0.9759548221250443,0.566699915366988,0.8806195068894963,0.4116676224436353,0.6510994263628589,0.013756484733442893,0.825639998828988,0.5386766948718441,0.9377897619189156,0.4646496049430741,0.846137218156373,0.35209654245948435,0.6998257285811107,0.18946241098522676,0.8814457976666268,0.622556752897981,0.8798667335174345,0.32883773330457133,0.741683861670497,0.035773169840465094,0.9931447104275957,0.9671578491228453,0.935577806434799,0.6908616665979321,0.7576605119857716,0.1800128715541254,0.7255149248177615,0.22169250106617036,0.7011806147453654,0.21385816173336014,0.8181566706785264,0.2780067185290866,0.9512297520877844,0.8920382943590963,0.9769327310264446,0.9335872437108865,0.6336178914869098,0.11488729964633734,0.7981488472414704,0.2913366512988881,0.7385212960684319,0.33106504196284015,0.9379303597812626,0.6584155213145878,0.8316554785046719,0.4190752724292369,0.5467442065380209,0.8014038132204331,0.3621938096067181,0.9844633786619027,0.9360436333525334,0.8671558738788452,0.3653734046370057,0.7939677735160316,0.40001832740674015,0.7758813774586086,0.19428348686085267,0.8445373414797063,0.4795647412450634,0.8572484215918766,0.23907868631738605,0.9608851139919535,0.8160830798825339,0.8880707188874791,0.4530151605295711,0.6408973234542031,0.13354131764745755,0.7113184044009827,0.13452258460020974,0.9085012846359137,0.6920739092783378,0.9662892206045962,0.9076438279806951,0.6017473241941915,0.09803860714737618,0.6540731546562366,0.21072439321184497,0.9188635681061236,0.5915055867155254,0.8234565057961928,0.4383565347762407
26,3.119611931581108,0.6493067794618729,0.8397758612217743,0.5727358912338417,0.7687005734045101,0.04328197141857869,0.9909967016897214,0.9678957554823575,0.7112870426192068,0.13105342147865878,0.9678004963952251,0.5045257637306841,0.8602457815613771,0.4745102445702898,0.6614885617311509,0.029548383367608705,0.8507913945853508,0.6559762417412672,0.9378580133158958,0.6183998679646096,0.7595400666131191,0.31034588598600243,0.6357492375313958,0.19184285223296185,0.8646095321548383,0.5722964569751618,0.875602203697998,0.3867805846199903,0.7764596178963035,0.08903989774671639,0.994168279121654,0.9750424263756676,0.9408122567098011,0.7069186693916749,0.794771805152428,0.20949621070673582,0.6846985098148182,0.19869035787445916,0.6669119465045072,0.21548165747713255,0.8252807958320625,0.22490565134195262,0.9522291047098193,0.8856594298280673,0.9712212168722173,0.9200061536036845,0.6028351535619371,0.14666282855372598,0.7320142770525752,0.26474614187547163,0.7163650672891451,0.30919497098631554,0.9651035452186394,0.7532678602931924,0.8210506554714413,0.4368579068021849,0.5715040972772931,0.7633307434705682,0.4347855589256129,0.98538737903689,0.9356184686778851,0.838058542035108,0.4190490023121565,0.8116148289880778,0.5019256320530869,0.6911248279291369,0.16163884854087857,0.8343834722813934,0.444778915934231,0.8536696504602066,0.2760235242422163,0.9664867895396405,0.8588564327182199,0.8637811207592558,0.43630480410672084,0.6258722618419259,0.13585312287114482,0.7158551401018213,0.11704994138884653,0.9144290612875245,0.713111639515397,0.9606931675209824,0.8966569253644859,0.6003187582420952,0.11069891284314555,0.6324243925828639,0.19511591256333036,0.9529311983288931,0.6689731946689398,0.8131475834003989,0.45665255229539364
27,3.082238836835266,0.5838620608624133,0.8300684119405457,0.5375527528220682,0.7409935888950687,0.046475679645746316,0.9879491900488444,0.9511532212414228,0.6912678111735436,0.10445353588087246,0.9579723141472639,0.3634252163390544,0.8687124612776566,0.2891603672538202,0.6402151860543241,0.01607252239856634,0.8392127437991791,0.5500723970705557,0.9360721822613245,0.4901351663418287,0.7569735394653505,0.26688122590883767,0.6144759149623251,0.15626326112608221,0.8226568949742182,0.46242371301946106,0.810142000825412,0.2409096164454484,0.6622048753488781,0.044671173082110036,0.9931008478141101,0.9692391020570741,0.9547116003996637,0.7032149076480261,0.720087806592997,0.19333353473619172,0.6357230437377861,0.19667361409593476,0.5946917211341591,0.09082653525329853,0.8129695215445111,0.1877456112591307,0.9518326040209921,0.8607120368584125,0.9661781254495789,0.9038385400166461,0.5033796688594356,0.07832913300238241,0.7128593170466471,0.1972536225063754,0.5687473409999388,0.2479323353174143,0.9498396832625358,0.6892950356377052,0.7893476306167803,0.378386302190941,0.5277116926601463,0.7586900006623074,0.40453897338355604,0.9842422814015548,0.9108150768561086,0.8439027948020932,0.26394631293197046,0.803978725780243,0.4081726784940906,0.6909135128340249,0.13092548259407089,0.7882196672487221,0.3481820416121775,0.7811359237546606,0.17337737705724632,0.9601581059701884,0.8435492469173188,0.8853540063600863,0.45306136810622616,0.5723502752213478,0.06850042373889785,0.7568537725991309,0.10822001600575093,0.9061758050617242,0.6538196607800698,0.9551678713543692,0.8825335358231834,0.5110085641120006,0.06770128865842624,0.5152387092015016,0.15478911801043743,0.9269150341348691,0.6293922201071241,0.7900190656561765,0.40634530131729096
28,3.052366488381315,0.647045000587475,0.8244878042558108,0.536036159402438,0.7886608410611631,0.05116517606082377,0.9900619960206911,0.9593562504098468,0.6767580085351299,0.1202786340076508,0.9524284954497105,0.5282041251810197,0.8604333610498484,0.4816772041720579,0.6635506432452283,0.020153124104981678,0.8939770828078791,0.6913240390629682,0.9365358607775534,0.5682908480212637,0.76012937683441,0.26117395194297865,0.6974871426862814,0.23613091816633414,0.8532934260914385,0.6174019817221257,0.8406339506806796,0.3246004772182397,0.7312872797470191,0.06948134662562946,0.9959104636785763,0.9809293072387266,0.9293570393692807,0.6737983304016071,0.7310830909446827,0.257227236608612,0.6955741480486846,0.2145364558028809,0.672926990302393,0.24298095605145503,0.8841052556736215,0.30340834057526667,0.9496925860764,0.8797138560345692,0.9682330564894185,0.9247421420551936,0.5735415479453378,0.12110669225344517,0.7228878443655822,0.3107479392885324,0.6846002813876637,0.33342762035988543,0.9678403308718284,0.7342397278523178,0.8171337655537042,0.44008203233157117,0.5594325491232708,0.7564225721010559,0.38462298070656203,0.9835125085989603,0.9197524645352471,0.843293085589966,0.4367810224934012,0.8588811011909122,0.5215050014382916,0.6810823295995323,0.1276253079578783,0.8144183784453408,0.4737268070248129,0.8129514281158505,0.23916785485503173,0.9593361439011783,0.8262670412142729,0.8508266464549933,0.41557196239772953,0.6147441850312922,0.13680233705399172,0.8182062561730562,0.1543501593296095,0.9070457809156297,0.6906092965545907,0.9534208656308704,0.896808692867608,0.5666047551139325,0.09113555100397572,0.5962716270328088,0.20533975088282505,0.943982095069607,0.63874146851791,0.8100624849353116,0.44742548117710856
29,3.021165550980665,0.6842321701327694,0.9030735772036015,0.6974706853590568,0.844155729031839,0.06234225711001634,0.9925533215435705,0.9766511462652488,0.8570145695992644,0.34520390640054444,0.9907141590828508,0.6916879144342695,0.939867209582033,0.6316196647944611,0.762235937919464,0.049982953208637035,0.8754542522290805,0.6857667171238042,0.9725054244441803,0.7393639411221476,0.8317379081642803,0.41610049071711386,0.7374653649882391,0.2793369799122068,0.8669944088973176,0.7029328234977683,0.8469507657883826,0.44675140638702654,0.8218273614865663,0.13253709267172084,0.9940831281383268,0.9666247489886212,0.9602896379344836,0.8080691901321028,0.8130286988418477,0.26581501015262143,0.73084421050263,0.23908743054653978,0.7540843562394038,0.34164758266715234,0.8963120172372575,0.4408288553370141,0.9660646552837648,0.9158302997017485,0.963035979861902,0.9124368713327458,0.6520468934699121,0.20805495233473345,0.8450193724415409,0.40860701427880314,0.7176363199379936,0.3846370874981131,0.9624160745169196,0.7896926967742844,0.8652850513217943,0.5207338353364809,0.5895673627632391,0.8300316293483396,0.4858416770806869,0.988250750304677,0.9556263946492151,0.9230813156692552,0.5297046501749756,0.8316402741191551,0.5184252301470675,0.7414463055309751,0.1995277672385373,0.8059923592150369,0.5313618165052048,0.8305955034451874,0.3437341167227362,0.9590812814493886,0.788485738488622,0.8796058723698736,0.4762027426920853,0.6792457572522578,0.18130285330516155,0.8034733007456663,0.19090265823730448,0.9181221940791036,0.7122488114742942,0.9522895133395368,0.8888570521145446,0.640377066274113,0.16179737013884254,0.5870312372210276,0.21568979670698613,0.9426145337291952,0.6911082516157521,0.8320549308807993,0.49192605795575106
