epoch,train_loss,train_accuracy,train_1st degree av block_rocauc,train_1st degree av block_prauc,train_abnormal QRS_rocauc,train_abnormal QRS_prauc,train_anterior myocardial infarction_rocauc,train_anterior myocardial infarction_prauc,train_atrial flutter_rocauc,train_atrial flutter_prauc,train_bundle branch block_rocauc,train_bundle branch block_prauc,train_complete right bundle branch block_rocauc,train_complete right bundle branch block_prauc,train_early repolarization_rocauc,train_early repolarization_prauc,train_incomplete right bundle branch block_rocauc,train_incomplete right bundle branch block_prauc,train_left anterior fascicular block_rocauc,train_left anterior fascicular block_prauc,train_left atrial enlargement_rocauc,train_left atrial enlargement_prauc,train_left axis deviation_rocauc,train_left axis deviation_prauc,train_left bundle branch block_rocauc,train_left bundle branch block_prauc,train_left ventricular hypertrophy_rocauc,train_left ventricular hypertrophy_prauc,train_low qrs voltages_rocauc,train_low qrs voltages_prauc,train_myocardial infarction_rocauc,train_myocardial infarction_prauc,train_nonspecific intraventricular conduction disorder_rocauc,train_nonspecific intraventricular conduction disorder_prauc,train_nonspecific st t abnormality_rocauc,train_nonspecific st t abnormality_prauc,train_normal ecg_rocauc,train_normal ecg_prauc,train_pacing rhythm_rocauc,train_pacing rhythm_prauc,train_premature ventricular contractions_rocauc,train_premature ventricular contractions_prauc,train_prolonged pr interval_rocauc,train_prolonged pr interval_prauc,train_prolonged qt interval_rocauc,train_prolonged qt interval_prauc,train_qwave abnormal_rocauc,train_qwave abnormal_prauc,train_right axis deviation_rocauc,train_right axis deviation_prauc,train_st interval abnormal_rocauc,train_st interval abnormal_prauc,train_t wave inversion_rocauc,train_t wave inversion_prauc,train_mean_rocaucs,train_mean_praucs,valid_accuracy,valid_1st degree av block_rocauc,valid_1st degree av block_prauc,valid_abnormal QRS_rocauc,valid_abnormal QRS_prauc,valid_atrial flutter_rocauc,valid_atrial flutter_prauc,valid_complete right bundle branch block_rocauc,valid_complete right bundle branch block_prauc,valid_incomplete right bundle branch block_rocauc,valid_incomplete right bundle branch block_prauc,valid_left anterior fascicular block_rocauc,valid_left anterior fascicular block_prauc,valid_left axis deviation_rocauc,valid_left axis deviation_prauc,valid_left ventricular hypertrophy_rocauc,valid_left ventricular hypertrophy_prauc,valid_low qrs voltages_rocauc,valid_low qrs voltages_prauc,valid_myocardial infarction_rocauc,valid_myocardial infarction_prauc,valid_nonspecific intraventricular conduction disorder_rocauc,valid_nonspecific intraventricular conduction disorder_prauc,valid_normal ecg_rocauc,valid_normal ecg_prauc,valid_pacing rhythm_rocauc,valid_pacing rhythm_prauc,valid_qwave abnormal_rocauc,valid_qwave abnormal_prauc,valid_t wave inversion_rocauc,valid_t wave inversion_prauc,valid_mean_rocaucs,valid_mean_praucs
0,4.83680446200303,0.34044178122429797,0.6997669954439016,0.11776379432023017,0.43507684830436577,0.06235908853813318,0.8165662224286987,0.026581595052566093,0.9546240403771633,0.7669211228422835,0.9072490299585824,0.5110688311095899,0.934822951315503,0.6035622418830529,0.7732612362973005,0.01404896447714468,0.7875731151702379,0.18396283067753996,0.8747217329769628,0.19804761090802114,0.697375541239899,0.014434854319561513,0.7994969894038013,0.4104611410774401,0.8554717699427163,0.03588751173036314,0.7866283511007772,0.15078697035994887,0.502700846326048,0.024369164468780048,0.8419579514754564,0.372572299611438,0.7195883073933271,0.04401470637946255,0.45294404229874985,0.006762618745344316,0.9403649627176325,0.7801944282084,0.9676197218328055,0.7851160376187145,0.9483533368712365,0.3974441722791628,0.5649605051955733,0.01670637656988078,0.46606440667395477,0.007946967252603203,0.48615606715350623,0.029343421771970045,0.5497086873255685,0.02497812960577779,0.5393844463081284,0.0167951650130105,0.6352257081313969,0.15258376016806563,0.728371685140896,0.22133514634571094,0.34064675301788705,0.6913072514090881,0.11040873974861709,0.4294454317007459,0.06346711054157089,0.9540850372925099,0.7627807402949852,0.9243068545665779,0.5417527574293312,0.7975486437539303,0.21268670024333902,0.8778439269675011,0.21511199844351636,0.8078056879789256,0.41359676009682644,0.7858927332998238,0.1488868331773268,0.5332398993763243,0.03018338372360608,0.8385855892385952,0.35805643700144935,0.7244401319877349,0.048464700402195374,0.9387941449631255,0.7612045361885712,0.9556218250831059,0.7389962253058716,0.5142507519892523,0.04309390371326729,0.6535598257697646,0.1508867625169829,0.7617818490251338,0.30663850592183045
1,4.376091091826973,0.3073081894019504,0.7232484193661503,0.29943332894525376,0.39913203247316986,0.04573784277978881,0.6908869123908432,0.014935632507429526,0.9249052431424779,0.7856647515490871,0.8397698084202236,0.35007484429810987,0.9450737088991298,0.6801683087722767,0.8071996498257644,0.017017918493345236,0.8213467110895583,0.18593380771746973,0.8611833246668636,0.1797456409827098,0.5040848328443481,0.007951521212903531,0.6925180611120871,0.2258350963787908,0.8860945987108602,0.14014452200605465,0.759102339156466,0.23549786277515153,0.5721871767103193,0.03413070539172132,0.7319336614559362,0.21703686146628495,0.5578228894632387,0.02836554242652307,0.5720624893161228,0.011816648682404044,0.9527161832213545,0.8152446024997555,0.9773601618441236,0.8455915329766451,0.8433791527611589,0.44034251627473264,0.43758540487454595,0.009789377274068877,0.5665444265228196,0.010254604382260698,0.5446878090676446,0.04364542453649636,0.5807086217547799,0.07313657135732445,0.6460821487572077,0.03091206489779741,0.7185755919147111,0.2931510477246629,0.7136996676831503,0.2315984068580403,0.29650189444003877,0.7357240295956426,0.3024065631615454,0.39753830608398044,0.04877820854303326,0.9269300053549345,0.773041365983914,0.9316085719832726,0.595331873282818,0.812648185327352,0.19569894410795644,0.8582963672347677,0.17646863032667084,0.6952068902293312,0.23143786954578896,0.7583881045244291,0.24980623537592328,0.5850941262103301,0.03856690090925953,0.7269969570524372,0.2186998882631415,0.5447974787854388,0.02691369514997441,0.9488699843765986,0.805192280052616,0.9709044505754215,0.8083833098128498,0.5545496275862751,0.045525713021360145,0.7379623482514415,0.2842079422623876,0.7457010288781103,0.3200306279866159
2,4.186703628216881,0.4226882857478557,0.8840907996592664,0.46340793586180723,0.5740926591566227,0.12672105111716972,0.8389532086973336,0.03002531480492469,0.9767413882320256,0.875503074345105,0.9151202602758736,0.5249832121676783,0.9653215824138228,0.726229956077705,0.8768448160136879,0.06931720669839583,0.8885644917709886,0.3680470890367365,0.9189146207728198,0.3463307085716905,0.7265528928219709,0.019187982371984196,0.8362108211885024,0.46080816396378593,0.9807330236206291,0.7147798905263917,0.8562363458031695,0.34302726671155515,0.6420693092788851,0.07228431838444788,0.8982604233057516,0.5565498171751084,0.7386640120171885,0.07661671472724657,0.7343412244984012,0.02417457860998576,0.959748667836418,0.8349057369531381,0.9772998347560885,0.8639363629126684,0.8742707407551192,0.48679316042203424,0.6520666131621188,0.030113526995261986,0.6563626864841975,0.019149387240443523,0.6961951030640536,0.14099237169880274,0.6979253502949806,0.16288316871688038,0.7426268722098777,0.0899235349606859,0.7720526614271577,0.33800853959636706,0.8184715542121904,0.337103848871077,0.406115076218169,0.8694555446237571,0.43125988012824534,0.5743345326069718,0.12165145029536058,0.9744061495606869,0.8615967187126192,0.9544363773077882,0.6461875795434113,0.8873383861969657,0.35357230026541253,0.9191476054365518,0.3316974164540252,0.8392401322440882,0.4592333108073104,0.8476140333017325,0.34423533061082584,0.6261633701644486,0.06788872302013971,0.8929507817119942,0.5481015844456957,0.714829888610012,0.06475792883561199,0.9543070116408113,0.8132809930141783,0.9742561708642347,0.845074425168197,0.6996880294177208,0.1612774497633805,0.7902222922257338,0.34072337332236896,0.8345593537275665,0.42603589762578553
3,4.064410649599809,0.3338914346140289,0.8151676332970539,0.42404130401763257,0.5037582657684954,0.0755378501840541,0.7574915132670811,0.027413597038911303,0.978566578570144,0.8829447534000249,0.8236836706383384,0.36158377744284154,0.9610247680650176,0.7221705510594709,0.893870830017455,0.09806086162829704,0.8713331282815764,0.36396765267714354,0.9333480233367458,0.41938538257492064,0.689400724933898,0.01608677463484657,0.8638103558645713,0.49927417645553596,0.9784994961667798,0.7319731718849427,0.8354893491798543,0.33319788487471036,0.6157932762600361,0.059783344453901786,0.8088667631534204,0.36192975849083564,0.6365313112596096,0.048450726205918,0.7159227893044193,0.030510962753873216,0.9562593966991404,0.8243013672046602,0.9806180981127348,0.865148471266317,0.9209796849024662,0.5344604819544952,0.5996579844977612,0.02855035126800179,0.5474429446821357,0.0180780060110136,0.5716106211651895,0.07888926451905576,0.7613478540389219,0.18441417097289708,0.6885110285582355,0.07325434208161621,0.6685239263323903,0.2673073782732349,0.7837503852443644,0.32041216782035203,0.32196669310071374,0.8098732274036875,0.3945734390348149,0.5027624294489383,0.07807723489814061,0.9769058162489341,0.8757775897865522,0.9477875124422571,0.6349132464769287,0.8690274006847325,0.3313222511616134,0.9343603002685787,0.4086749012261864,0.8627027271611779,0.4953537715946146,0.8257496707365957,0.3227393816983564,0.6251002957662434,0.05857730041152456,0.7936988677770664,0.34878439432973085,0.617332022122833,0.044907054635236116,0.9519001420666965,0.8030092472832402,0.9742782806254553,0.8340781619290071,0.5874199853800448,0.07740124901941703,0.6942372716687446,0.2631109336962187,0.7982090633201324,0.3980866771454387
4,3.977961010552506,0.3740159793208789,0.8286264715034751,0.44203465801716674,0.624467115319451,0.1370374869080479,0.7507978283268988,0.029886948828249993,0.9564359192158887,0.8418900167871223,0.7432887462387383,0.29372392734537595,0.9401526432800672,0.6689545983917342,0.8969722651117082,0.13285933762408592,0.8573925648532309,0.3568759101828747,0.8935426749446628,0.285718044995981,0.656775016287766,0.014234068122345438,0.8731125765796276,0.48489610690713075,0.9580231028726521,0.6597630721580142,0.8283659001924354,0.32617500130035393,0.6265294301290901,0.06629432944764577,0.8253099222863878,0.457027760443417,0.6512027267753401,0.041778797870715215,0.7265328750761123,0.02738974546337565,0.9607049959367155,0.827845942426421,0.979909318933331,0.8507827846641132,0.8519147268858919,0.4236578090322924,0.6477369688265608,0.07945364141698916,0.5382630706718109,0.019825084040917845,0.6594444772206028,0.16202197830432696,0.7807069636428817,0.21905566680898497,0.7442887211573285,0.12391565988952155,0.6788679053882698,0.30122492538554185,0.7876678818329587,0.3182432039524133,0.3512203718389285,0.8205777118761298,0.39279067156168085,0.6234042728236934,0.12379045746794594,0.9561425172471685,0.8348410884034607,0.9223441366537338,0.5863590313345021,0.8595081700884301,0.349854337108566,0.8872546230375693,0.26145972964441094,0.8715484319699124,0.46191985973766997,0.8199909015136574,0.3230655173697989,0.6296015616587199,0.07420757620178448,0.8137314761021404,0.44458111947622203,0.6244311506151716,0.04071786559455784,0.9551064073654302,0.806250962302042,0.9721945850206966,0.8051988074157238,0.6516514745904189,0.17364456826968933,0.685011871974045,0.30224225855373654,0.8061666195024612,0.3987282566961194
5,3.906482477331537,0.4044765597462108,0.8339790817242724,0.49768290561372114,0.6530818702186232,0.15863309027185324,0.7666778107159996,0.029383023484985435,0.9522748706878986,0.8123949604761445,0.6704974990812417,0.26455470498538564,0.962578251525893,0.7594839874948263,0.9181786514536321,0.25106141510507596,0.8706741750034425,0.45558960953675687,0.8854384719428944,0.502935809158101,0.631569645521453,0.013720801053848831,0.798369764142362,0.48757901318610763,0.9662732312646063,0.7353648782447799,0.7868494505910033,0.2727328232284242,0.6135152816528866,0.08140593519560735,0.845956217896037,0.54908875284314,0.6738847244881546,0.04668783300029245,0.7738391963735851,0.03916392054155686,0.9615117949054337,0.8158105588597222,0.9796278722976234,0.7504960998193593,0.8328004525558174,0.4239576216053409,0.7524268448508913,0.10198936734973377,0.554444505204226,0.01984144494096383,0.6542436173454987,0.14236093554245405,0.7312626697963109,0.21801360665311353,0.6903931572696324,0.11530825911713696,0.6265634739587584,0.26204111747735415,0.7841120224026222,0.33874163364560717,0.38734690281082035,0.8044922956725102,0.4515247062572626,0.64918090096039,0.13596222131532532,0.951201307679393,0.7999209776329526,0.9536702732519977,0.7004496599987036,0.8746000682214525,0.4338996227855868,0.8846230972229423,0.5050389012602914,0.7947100322283299,0.4829282044331366,0.7725185946338018,0.2569659511692075,0.6371309297974167,0.07945061458057252,0.8269547905180765,0.5132446004126504,0.6415338506883506,0.04320844401171335,0.9552441451598939,0.7845454151263498,0.9726179570700145,0.7121975160055141,0.6770811209949472,0.17349844655020638,0.6536028828362022,0.2600453569745891,0.8032774831290478,0.4221920425676042
6,3.851433452967681,0.35213253436728936,0.826091704485504,0.5006800288937666,0.5198475447251194,0.08507671365307701,0.7755893265420275,0.031063214345686437,0.9775217414126248,0.9022027274615514,0.6857788975726626,0.2549873057957125,0.9616077254508756,0.7310008485399877,0.9360537535501794,0.3320958203286851,0.8726127934335542,0.4336811990447236,0.9075423451467095,0.5261110822755936,0.665623364053157,0.017056626757933596,0.8311473725949178,0.507059957525783,0.9658087630446497,0.7473446181185407,0.8113343713502528,0.32857318953017584,0.6140483981574297,0.0941095174470332,0.8264001397839644,0.4332614044769733,0.6970517210085349,0.078481171356553,0.8021277072360711,0.0714774755977198,0.9672497364372424,0.8396819506034134,0.9880882976594937,0.885585381780317,0.8447629731974373,0.5042635601406951,0.6728156416321702,0.07785649423956122,0.5945849589713298,0.03097677743760205,0.6432043992555101,0.14806587819326786,0.775057575423365,0.29322077631767973,0.7359779713831641,0.14244196287474686,0.7218820291578749,0.3436490151965814,0.7930696635640702,0.3592309499205139,0.3306018151378976,0.8016862946850218,0.4394552918184491,0.5189512074198515,0.08167011487131708,0.9723934197950421,0.8826698413661941,0.9468066157368744,0.6391460546085976,0.8688739323912217,0.4088053760915505,0.9031952062384794,0.5094036201057306,0.8285673750887093,0.4911106267434687,0.7937145683945307,0.29996213316118975,0.5989440505482566,0.08214592333616366,0.8109713117002485,0.4128006265732047,0.6504925077180393,0.06586286829775172,0.9602013283826436,0.8101985768321778,0.9825745203526328,0.8591896469011464,0.662283972874056,0.11155236294823716,0.7373563108411069,0.3429906137259035,0.8024675081444477,0.4291309118254055
7,3.799326580989068,0.4083245212078487,0.8064885560874113,0.43213262165954175,0.5539534628113073,0.09298921898115362,0.7493305221000548,0.027312286932555146,0.9651658675548729,0.8599328602199265,0.6170632287286765,0.228780834037659,0.9410898587268277,0.665149428290215,0.9384692803479849,0.34000292123478504,0.8470116512803012,0.4110103047904479,0.8942905752647486,0.40005703163640116,0.6266581972296005,0.01495044563445326,0.8294632357456142,0.45987224640109625,0.9724434138786486,0.7739311878970311,0.8098332682107618,0.3495359156796167,0.6363886454111041,0.1118493047972059,0.8112499880861572,0.43943373712686334,0.6782939476748836,0.07490989778340913,0.8128251806840532,0.11000888808177138,0.9633502766657085,0.8407209938793466,0.979842410397607,0.8662498439555272,0.9087828879411345,0.539456417039724,0.6510969972332517,0.0694267124175307,0.5679031608594125,0.0448382821090066,0.6556224518595645,0.18466952658254962,0.687094864852575,0.2969902605931325,0.7093740743622727,0.1575827172945295,0.7300271987468483,0.34679539018309535,0.7824274308746687,0.3514842028937913,0.38065027755749403,0.7821824895383723,0.3753139105282181,0.5472845866093519,0.08334493329164283,0.9608991022803461,0.8370988612858863,0.9178234755731141,0.5652342577562943,0.8291511225066649,0.3408295603734859,0.8870445736122857,0.3693005083870891,0.8262205185724136,0.4319805533220591,0.7912794507822789,0.2927073363383934,0.6346331502707885,0.087412264704729,0.7904363479160491,0.4070831245007877,0.6266565739802997,0.05365682438001449,0.9555136931044524,0.8106336183843076,0.9717777861436333,0.8369094084578066,0.6647279379442169,0.16617250800998998,0.7414500442346956,0.33652984397351793,0.795138723537931,0.3996138342462815
8,3.7564715966258397,0.41055692633063096,0.8541047993029388,0.5169220399666404,0.5840516116625403,0.12399482180964441,0.7636400111985603,0.027113268900648135,0.9817522488969412,0.9160296351905375,0.6829790104558938,0.28142380395846633,0.968558035525507,0.7583416357088444,0.9279516801478023,0.24777984331446304,0.9023504431812058,0.5292642181775162,0.897237980078585,0.48341815912160546,0.6528724735848362,0.01791575402488335,0.8110581997743722,0.5012111975437934,0.9752536094990422,0.7653756721392149,0.8174115805681106,0.3858365921765874,0.633115651724005,0.11769007565463455,0.8441052198695842,0.5220363251965123,0.7550387597792191,0.11323649437755519,0.7959653487199534,0.11749804666384554,0.9706708805667639,0.8635968446113996,0.97659267957027,0.8398335269955541,0.9079775008076402,0.5855028085821439,0.6922956751077131,0.07727683831058267,0.5661198926570499,0.045663151057920015,0.6307917201296869,0.18522457703753198,0.7265149427285639,0.27769298600954145,0.7292379677902888,0.20318135468084836,0.7107508470386366,0.27476870054700436,0.7983999527063734,0.37607032199068924,0.3774781919111816,0.8283065193412529,0.44993711500710853,0.5764393981081364,0.11134790568857206,0.979330762123495,0.9007809674148087,0.9562443952061486,0.6662795293434013,0.895223119518829,0.46615121443137847,0.8942560028707137,0.4599735594580507,0.8108958793834371,0.48223229857828004,0.8033020983781789,0.34461568288871397,0.6222410061719847,0.09164381503617933,0.8281863423348024,0.477527712042616,0.701800083732952,0.07272657634366017,0.961412732284952,0.8176858405839666,0.9688165720428642,0.7982467967159121,0.6273658643801583,0.14018332333804787,0.7222069948228478,0.26093765327224244,0.8117351847133835,0.4360179993428626
9,3.7152060904943793,0.446569145811303,0.7259086336366778,0.39275165798262207,0.5710727628783363,0.08968321128716704,0.7666468891461145,0.022793927025751788,0.9590051963266425,0.8598188275607277,0.5800202164659248,0.1665824783053135,0.9459030092049767,0.704615930067578,0.9326773437589843,0.3040955381883416,0.8884933784746545,0.48232721095650943,0.8810521338736895,0.347607017930171,0.6716609777731619,0.016689210958514198,0.8597203512886158,0.49333228357364683,0.9625334786722756,0.6895939764582784,0.7967488188549008,0.27092604557506395,0.6431242149683544,0.12104730435417156,0.8218551288631981,0.3553922517406774,0.6662012889809968,0.06591600866350278,0.8115652169017229,0.10248343095490096,0.9748772191174253,0.8739890738032845,0.980557360752636,0.8236908436248815,0.828882444328286,0.42785377575396777,0.6595235015206555,0.0927592148558698,0.5826413497228073,0.06253503293104971,0.5896202040409743,0.14977731477584402,0.7471869252349809,0.27043826006990873,0.7213475716229454,0.170650959208611,0.6918816642304544,0.3200897529234503,0.7792579723323227,0.3337477130588387,0.4105207507269363,0.7132045246247829,0.33488041709689564,0.5711206222196328,0.09085376169263981,0.9535055480632804,0.8404541877735735,0.912296185812591,0.5901876597193537,0.862538869142502,0.41720670708383795,0.8684035188268986,0.3228513744656117,0.853965036669093,0.463855525629538,0.7685511296756994,0.21942263979463617,0.6162750779898258,0.06206429126111703,0.806770406897971,0.3325673829526541,0.6070499231516021,0.04346174242699839,0.964632672978993,0.8368171454974789,0.9632003939122865,0.7767335717235901,0.5839915811777955,0.09953044159589113,0.7028351422208027,0.2983474170722726,0.783222708890917,0.3819489510524059
10,3.6819784701773934,0.4019797908588885,0.8379750655732373,0.5131615082383758,0.5421647641125591,0.08106773716717518,0.75522588926577,0.0281570770397157,0.9785867347258799,0.9020852004260593,0.69843309215338,0.33485206070445567,0.9564546662371738,0.7464590068185112,0.9484324185997021,0.2814192016100624,0.8907919600253844,0.5007563323367106,0.8777019405473432,0.45054554747689973,0.6130547274976738,0.014041601747518437,0.8292485387266537,0.5258886276701017,0.9647105764951932,0.6596477811998531,0.8000771353065258,0.29370526828596555,0.6958549805910432,0.15003924188545478,0.8080946596699359,0.3685972891397563,0.7399712356656857,0.09794731879316011,0.7833446875420392,0.12285236938810641,0.9712195916804932,0.8669269270790423,0.9923902737622401,0.900338465181956,0.92597271250643,0.5252468980929126,0.6709981150206977,0.0966130941292101,0.5980264231233852,0.07323624912140653,0.6476216207121865,0.15128780567057099,0.6737208608816483,0.2683501818086844,0.7684899068061932,0.18811410703409165,0.7150904306846282,0.3244207468558085,0.7955251156889648,0.3640676017269833,0.3790642347343378,0.8189062087952796,0.43745131566761075,0.5363273903740892,0.07869202945184856,0.9736864773638798,0.8786893111411855,0.9267883722291903,0.6449601681882737,0.8676626718949797,0.4408462042333521,0.8662617259432034,0.4345685831401002,0.8220587858688052,0.49304708188809754,0.775870400651528,0.24855132396629162,0.6672370672101058,0.09336924503204728,0.7925019283423316,0.3391428818859405,0.6618230159379173,0.06557078128661824,0.9594320382045289,0.815909727843464,0.9791125500382739,0.8623961209112317,0.6450320552397228,0.13741002097824945,0.7191427301271398,0.3052760013660506,0.8007895612147315,0.4183920531320241
11,3.6357505846746294,0.4225120432381624,0.8237745315964177,0.5088762706825769,0.6000366139380614,0.09963793934031745,0.7400841089733706,0.020029013945460732,0.9616447247012094,0.8754000916110147,0.6991733494319431,0.3047426164045679,0.9474894439192342,0.7342132392353714,0.9590782626897766,0.4379066376873036,0.9061021793858625,0.49715493849223935,0.8806015069540833,0.4114866159577676,0.61793930625891,0.014616431878031402,0.8288004432865081,0.4748689899348178,0.9456580714966139,0.594363196896538,0.83163251525836,0.3049096456555006,0.7111173796503683,0.1583146389938492,0.828463204211874,0.38121075898066364,0.7730628913017108,0.11563771630022229,0.8024317372873692,0.12494276846853619,0.9763509681465808,0.8840632254892768,0.9909431074361674,0.9201217761010082,0.9382915653938996,0.5858909342437676,0.697066005955901,0.11229168004764742,0.6363423133779631,0.11208952175328069,0.6823821325697115,0.1990397638795875,0.8238194306093988,0.3637455210698671,0.7853725142474159,0.2864580531166826,0.7530496052208904,0.3460392643268757,0.8131041505115232,0.3795404327112605,0.38161952594942283,0.7975866111890844,0.4253249695890912,0.589141286626939,0.10059194003230246,0.957381703132527,0.8553386693740817,0.9144621400990449,0.6088164281181581,0.8731063001731914,0.39794396607889104,0.869116837956562,0.376484471215285,0.8196113778431922,0.4344817643574787,0.8112533324001553,0.2591174516141815,0.670971591704943,0.0655861455597539,0.8137926102218326,0.3497662974175384,0.6919847016122438,0.07243122209839961,0.9627471901489929,0.8331624804958573,0.9780264827134534,0.8575049167962309,0.6676287766159742,0.14979858144245917,0.7562508556211921,0.3182702403586933,0.8115374532039552,0.4069746363032268
12,3.611959628864988,0.4312360474679826,0.8581915354887764,0.5088717231787061,0.593964350375832,0.13655532136133258,0.7720145166693748,0.02950225675635596,0.9703131775077256,0.8753572959243886,0.6574536390092497,0.22522457375188853,0.9433367902344088,0.6971282526233157,0.9502703384110248,0.3257065919869944,0.8828158395746898,0.5174074213285518,0.9058229824660794,0.4400631504764878,0.6861792191654023,0.023898571564905276,0.8605816571989209,0.5479626369365941,0.975797467034818,0.7218286532705962,0.8364331248639351,0.40001845361841104,0.6539245918620246,0.15360104696923274,0.8521013443733919,0.4831736745812852,0.7677473143541408,0.10997756501130315,0.8211152104988837,0.17786373823396978,0.9511387182874355,0.7873600345729653,0.9883312470998894,0.8586847048481946,0.9046879701124596,0.49203027923638604,0.6880973721170905,0.14646300532981882,0.6186656609667464,0.10161683564663673,0.6444985736935851,0.1824125006967444,0.7551998765962782,0.28935666549443373,0.747602171992416,0.21843607990516023,0.6416515529662059,0.3036505049250657,0.8049206247277225,0.37515967454729715,0.3948365494757247,0.8261346662874214,0.4181635205158467,0.5815458869176131,0.11582082728673718,0.9657367177324048,0.8519931925925599,0.9111012668760151,0.6000798032042073,0.8590105971055642,0.4251052090259956,0.8952391397219868,0.3826539109710095,0.8506942846050768,0.4924468812295978,0.8070521222378461,0.3135619560496615,0.6204909411973311,0.0717025418161591,0.832895659763054,0.4285370812493679,0.6889376748659259,0.06222411431185505,0.937254433189299,0.728351815535245,0.9772583179013175,0.8084918897347856,0.6465255379995357,0.1644281742318699,0.6541016823904695,0.27130852304608644,0.803598595252724,0.4089912960533989
13,3.568441021864009,0.4374926565620961,0.835107187520717,0.48806379703924835,0.5144813574225271,0.1003153386970434,0.7258361175222344,0.024807798809416876,0.9465432119551276,0.876624985874437,0.6381708511857531,0.23427585311515103,0.9624643810299146,0.7386889219892524,0.9472243640682456,0.32831963508436096,0.894835689183445,0.5124568707150577,0.8630280055114701,0.40539570414249354,0.5922034886915505,0.023495125713773067,0.8003955531123822,0.508088113396183,0.9742780168075752,0.7396243774629094,0.7950302260477767,0.3700434153196012,0.7193912933878852,0.18511513096959664,0.8120059310183891,0.45394062670559465,0.7786022680711396,0.24458199139520473,0.792267694027894,0.1733150557304894,0.9768318825062571,0.8956874410939102,0.9945018756954969,0.9364111800759708,0.9255877402296333,0.6551871930625407,0.7055406907366731,0.06098744648305861,0.695511657366654,0.16030397612685926,0.6415201473563378,0.18585550647445195,0.682990083234705,0.22973845376124122,0.7674722777004445,0.2458588981913504,0.7101902973000032,0.36345031321508053,0.7958466264880859,0.3900243519478569,0.3947484359855494,0.7994472188416543,0.40511547299642475,0.501526942925796,0.08477819962288541,0.9429964205335403,0.8562766500964428,0.9382192240962223,0.6160236629126307,0.8686877921367883,0.38450371818329493,0.8488596300835748,0.3685540595098927,0.7926949956927818,0.454562809362096,0.7653886898815925,0.25576611871119703,0.6570900908997431,0.0749484696933373,0.7840690108594619,0.40708864208882656,0.6769599486698832,0.10868231945792213,0.95947092453543,0.8279218548590564,0.9817457030874189,0.881639083057912,0.6334842662609957,0.11981136445498049,0.7118279601549171,0.3300327959672037,0.7908312545773202,0.41171368139827347
14,3.5469669502107255,0.4224532957349313,0.8930278360189559,0.573615134959617,0.6635421793803162,0.16129082815648185,0.763692871535906,0.029510612576878224,0.9819987885765254,0.9139707121628792,0.6972348297967356,0.2525816892158773,0.9641604336374678,0.7922386811113772,0.964700760132541,0.3774534542418551,0.9301592967772448,0.5751296737303917,0.9090357304721169,0.5563777079753808,0.6770087993184196,0.020685033983299884,0.8728161751732224,0.585511292196829,0.9654151906084341,0.5450879180927831,0.8305802305364753,0.35167828725980854,0.726567895927622,0.219862115425532,0.8232176161000136,0.45581118409530774,0.7887551811185061,0.16036488257055723,0.8339210089676885,0.2352341579422263,0.9707158221403632,0.8597093328279655,0.988796358862786,0.9020307744338893,0.9390032333338416,0.5432962947992593,0.7852827732955986,0.22621667544794413,0.6379445262190759,0.07893196462789183,0.6771461968522239,0.23699416920413413,0.7211965990617599,0.2715494924249806,0.7677241952615673,0.26136194367941135,0.7050481951190731,0.35640638084350573,0.8261035663163262,0.40549616899946395,0.37122213410873206,0.8613936022555772,0.44390510419897344,0.6397330469750575,0.13214328670892042,0.9769257052218293,0.8758221172872369,0.925529354481832,0.6711585404369741,0.8826501096758761,0.4262880392597624,0.8895807684206807,0.4847682158275634,0.8627906704538973,0.5258350922724173,0.7963620370429284,0.24895989179886713,0.679150706381766,0.08356078059863756,0.7930494962254332,0.38762838881023576,0.6815247225384924,0.06647827866595926,0.9513936605196256,0.7797194678541527,0.967299065593686,0.8347832821125101,0.6561025965238092,0.19147349549238105,0.7048877498597885,0.2991618775996761,0.817891552811352,0.4301123905949512
15,3.5012037770026243,0.4113206438726354,0.8358032619289287,0.4601277559941168,0.6257199117988241,0.12683807303231287,0.7726300689637382,0.031824555457691764,0.9679280972152482,0.8721132475449849,0.7370709090846745,0.28705646497483894,0.9669369296923958,0.7530538147986795,0.9470616209707436,0.3358812094751199,0.9039714933156121,0.5304301486818691,0.8933600847358176,0.4357273554375699,0.6605781719178988,0.019293575505501852,0.8551277113748618,0.5465550951915621,0.9762231520032751,0.7891889154653567,0.81553189192517,0.3893715157850244,0.6185935832539418,0.15688711008891337,0.8317915475666706,0.44853257548655545,0.7771779704487475,0.1369138794445124,0.8244608587663016,0.17860937904533683,0.967139464184373,0.8474430088575947,0.9900515520523792,0.8698399442555057,0.896345662036196,0.4844931663203291,0.706409061628791,0.155748030269232,0.5870227199904552,0.15137435122319423,0.6468322197015874,0.19352867063254053,0.7189372206175662,0.28839775964387393,0.711057666289767,0.18424121110825503,0.6746127003369786,0.30230055808376155,0.8041682896846518,0.38368351430016284,0.37774253238170763,0.8139663051919825,0.3814238020197036,0.6108829092447111,0.10648351121836941,0.9637236793447667,0.8435475586536755,0.9327715955981374,0.6406509425670602,0.8688064902700503,0.4049051015528505,0.8725255810602645,0.3593050410223173,0.8414430744126731,0.4882306137627598,0.7751657451533063,0.2695707627843937,0.5700455105955241,0.0533537621218991,0.810832732375851,0.404302530909893,0.6680388596382708,0.06760799878900342,0.9454771335584362,0.7597814921528396,0.9725274265612329,0.8059596798779582,0.6342683601448166,0.12878101533394012,0.6703393485649852,0.24654476132814204,0.7967209834476673,0.397363238272987
16,3.4575634558463317,0.3881153800963459,0.8114940639052762,0.531976201534535,0.5171246565076193,0.0959648711769425,0.7438498609796161,0.03789078340921984,0.9718144534712475,0.8933964304996085,0.5745212623477695,0.23167875947488886,0.919149466457515,0.6259080286337513,0.9565605483656326,0.4388878601962744,0.8440566047619904,0.433311540465623,0.7696398980661295,0.2382300878480352,0.6441580508057538,0.023046071662695247,0.7934528640604299,0.44832449498051247,0.9390712016284622,0.7094912920960852,0.8214438209997871,0.43935592032569337,0.6867737141098587,0.208724369198725,0.8074178429088348,0.44432430364316866,0.7995112612760494,0.18619804331292616,0.8085906817544475,0.2418705651475069,0.9803524357074136,0.8991672947135658,0.9908990373786569,0.911178521365984,0.9518977031821717,0.5910143820200189,0.6927815060826225,0.1608854862875015,0.629093771876346,0.15539883146343775,0.6094471713714125,0.20155158867130035,0.6964073488524233,0.31044752077581794,0.7483516803737102,0.2822259427563217,0.6975650783174598,0.37307645218041396,0.784824076367255,0.388981755532329,0.33518371662701557,0.7773796219877326,0.3982799456825725,0.4951775496838082,0.0787011069798066,0.9662028741074651,0.8597899610815587,0.8877902551317569,0.5387686587491876,0.8262388218430943,0.368600722442874,0.7647877778078596,0.20681073585701584,0.7798129333436189,0.39236123481367013,0.7778806571270416,0.2896094424551153,0.6203832573473986,0.05214213558903262,0.7852636139584122,0.38661489055275094,0.6885847104188814,0.08052261747473706,0.9604563892627487,0.813558761480969,0.9662751446247286,0.8411000317512485,0.5793777751984313,0.13195939778774643,0.692372495881978,0.2995851058593472,0.7711989251816639,0.3825603165705089
17,3.4279480815816186,0.4162260603924333,0.7709161379446554,0.45660551702909524,0.4416565515220021,0.06818406034059815,0.6450744472783778,0.020920590913834004,0.9816873237001215,0.9372604432003256,0.6431613428939336,0.18525650941729532,0.9486846049605061,0.709623874787018,0.9596231172639712,0.457795711546196,0.9146472997527405,0.5392409150885338,0.8607773747475931,0.31245601421685254,0.5925367916331301,0.02007636474534469,0.8164647197915208,0.4556228099930578,0.9521986729457268,0.5792109136219548,0.8506143086336582,0.4567079303899678,0.6671696816259313,0.2327882438869197,0.6693858667697252,0.24919915540385404,0.7477953980060102,0.2621198907183374,0.7716452805443887,0.21435942528936255,0.9791488585703838,0.9041143545751286,0.9894664357108464,0.9415925798051247,0.9010490397053951,0.6011859198192805,0.6864086128241953,0.18792034758715004,0.5950604481992985,0.16278659236964876,0.5522512205577863,0.11714395530649423,0.7699121024833743,0.3165715031177044,0.7436056265324558,0.31566569388588556,0.7362000904352071,0.3839620621110325,0.776428513655113,0.3880142838140768,0.34417129262490087,0.7424748037586736,0.352648593941747,0.438591511645848,0.06449552223828967,0.9752188198514444,0.9156657708629778,0.9095356226059248,0.5941051715786084,0.8695870204190764,0.381252132327826,0.83946786255265,0.27049489863293935,0.7993387010033313,0.4015368241799116,0.805536715255553,0.29511374469715235,0.5899212774381284,0.06247890463658543,0.6544087348499441,0.20612060068142413,0.6091123188785655,0.0953456261045181,0.9562111628611681,0.8122320561291151,0.9690412550217541,0.8608957703498793,0.5144443058731719,0.05987309007144197,0.7144714432287059,0.32019503165430074,0.7591574370162627,0.37949691587244777
18,3.3872458908451724,0.446569145811303,0.8621949977471293,0.5729993896965284,0.5897834436672496,0.132927701928037,0.7756577340374161,0.048856973162527934,0.9846985763371573,0.9278467768086145,0.6783230436094556,0.25348175349454605,0.9168991807844377,0.6741880700234257,0.9669302532285509,0.4860106910835213,0.8954358210451953,0.5629703369730258,0.8504220478024935,0.447005057644255,0.6913543511431022,0.03763840234568553,0.810773293402793,0.5170634110293948,0.9671010209846091,0.7392495131948136,0.8322752866143406,0.4597550356736776,0.7155810499017872,0.3402921102444419,0.8560487799994405,0.5382067133430488,0.8219603397610362,0.2767838792234671,0.8562237335345506,0.31039209895472775,0.9766628196802384,0.893315312750443,0.9910095031318119,0.849265792479967,0.934211530849083,0.6416397600277657,0.7637431887302525,0.22515463707818573,0.6752992130503576,0.1854565332019311,0.6790492604908083,0.27840284463830073,0.7366230189645292,0.41441676516747356,0.7984984214724576,0.39281058327043417,0.7051700144322012,0.41256196097225317,0.8204588432462494,0.4468727732465574,0.37430610626486915,0.8233874690503169,0.417081903194265,0.5722261604577417,0.10430866326402624,0.9793234237783232,0.9000539508809243,0.861168139193033,0.5419025036123779,0.8352365000356695,0.37889679276412414,0.8272980737859693,0.38763170828539917,0.7949023762678327,0.440162437605495,0.7927147688157334,0.29688055916943884,0.6325272427995534,0.07608468002431137,0.8298291757805395,0.43785968822987004,0.6933247433668893,0.0927741062488842,0.9501112232690294,0.7825728763767883,0.9721787496511736,0.7725167104656888,0.6638438257854521,0.1599788800013087,0.6854689392946884,0.3048945104744407,0.7942360540887965,0.4062399980398228
19,3.348803613906097,0.4374632828104806,0.8797622411370811,0.6047449537543678,0.5668928609854491,0.11703218352643384,0.7382998134686528,0.040777605020185556,0.9663515226957764,0.880718130854891,0.5114500197971752,0.12415520425191323,0.9270849428550312,0.6727864942721354,0.9641886579706342,0.42991035608072853,0.8444821619938814,0.44248972793089736,0.8829453486348793,0.4950499766084867,0.6330050218850817,0.026269032115685653,0.8575808818728828,0.5724071828521962,0.9471268707973984,0.5336730421171328,0.8153216990723271,0.3983933763673601,0.6868776219932703,0.30951528667072414,0.836966214686217,0.5154686516612078,0.7618468283070815,0.17225104261943308,0.8220566494953975,0.2693717965899693,0.9760970328258591,0.8911156288954188,0.9934891874848968,0.9141083954306487,0.942684300548918,0.5431412215267403,0.7878921760158824,0.2617365884055864,0.6373304632622007,0.18058711924592227,0.6545086965854029,0.2424246229435094,0.7214209466261317,0.2824642006942228,0.7490035214661492,0.30460424721692075,0.6287909227487266,0.36244775245229915,0.797440638662015,0.4072170700040391,0.37606837606837606,0.8260789711053395,0.41950865915834123,0.5427999883471387,0.08983717717151535,0.960484794400143,0.8481246923092215,0.8781415351048847,0.5419213761859687,0.7937988618167888,0.32640240382441316,0.8566515345424043,0.3999366301486628,0.8275199897186082,0.4913781482885279,0.7532926340436091,0.2266883367035164,0.6111349958748179,0.05450271334454551,0.8035642186886441,0.42953943719428345,0.6314526968231102,0.06256450786219747,0.9503332270784632,0.7808406155268656,0.9794985745179623,0.838733762523467,0.6363369479855578,0.15231211357712138,0.6184754560000942,0.2598083492546452,0.7779709617365044,0.39480659487155284
20,3.3154398191550856,0.42703560098695803,0.7691334874314757,0.4958597798338996,0.5115923345238595,0.10314272493395538,0.68105442898801,0.028733699992547664,0.9660375048285821,0.8991360152067103,0.4841578664373435,0.11330389665737385,0.8736709953484397,0.5636248383437159,0.96541054129839,0.5006952032394778,0.8495648449988326,0.4751049362738752,0.8645499573083631,0.3213355781244195,0.6602366571647149,0.04227537504430963,0.8110051714562221,0.45141245406717817,0.9494478932666301,0.5502215525871755,0.7933593840768067,0.39358201683769767,0.6948530490868481,0.29068861733843365,0.7499017107970776,0.4074339824992914,0.7465649693551483,0.20498533046775663,0.8069548132042,0.3062029345190427,0.9879859062662137,0.9423334886129346,0.9886541312140319,0.8994105775792129,0.8655511511819276,0.4853088437170142,0.6859043676607248,0.22805924274016318,0.6364301577108005,0.2114764721664111,0.604873396405862,0.20324718261583222,0.6582287696985577,0.29852702170100615,0.7710487897742029,0.3744175321544448,0.6726383699370495,0.3686791142388317,0.7711081019007815,0.3907384004420273,0.3652304167768085,0.7364838154981818,0.37232702616541563,0.4909902072806645,0.08097662108614578,0.958956635455153,0.8729232036768869,0.8279546316013301,0.4395117034268222,0.8060084335623168,0.31704856318629754,0.8367845987310308,0.2310534946009245,0.7952045806868517,0.3652249813146239,0.7383064567440144,0.21216184108280334,0.5889857233885274,0.053579876179444506,0.7212121896502401,0.32904016348442133,0.6069153772980257,0.06071161817523918,0.9611431843403935,0.8364817960754682,0.9542677515986254,0.792215096142431,0.5544210547112312,0.09812883391729274,0.6516182832816403,0.2702400334648248,0.7486168615885485,0.35544165679860285
21,3.2774654164211743,0.3813887909763835,0.8253682143510737,0.5625582225370159,0.6014655391500928,0.13351423507578022,0.7805446088847516,0.04751779041334785,0.9524572224567966,0.8679879135851757,0.6841220124216938,0.2825723405639791,0.9658915424083829,0.7425768124718206,0.9674540006926045,0.49181854172269657,0.9262770458777113,0.6764209205733075,0.8428984055381777,0.45786974498481314,0.6605910934449817,0.04034583028024513,0.8300244491832853,0.6008854426331907,0.9761565999437023,0.8078371929413548,0.8551699819157321,0.4881037474406683,0.6701063088566088,0.32515803205710636,0.8298948445804621,0.5208502118526663,0.749073573946652,0.22657242845249942,0.8045461716591045,0.2757769197167321,0.9742047088839865,0.8798556960572129,0.9907436810238638,0.9030408503605065,0.8940740006405661,0.5496665156257808,0.6826201740305821,0.1573238829977262,0.6359839310966,0.3136811073418696,0.6016959290232454,0.22628227461996586,0.6889648382298298,0.27536437364522304,0.745264113163405,0.3928188000877188,0.7083060159589823,0.39689135388304625,0.8016884233601106,0.44781889161236343,0.3182659265133492,0.770143393074835,0.40462948912364877,0.5722339155448091,0.09780862771449964,0.9499551606535215,0.8441121531564206,0.927592997204922,0.615479400091214,0.8799814998768055,0.4290335009485949,0.818521655854838,0.3926602954209139,0.7948886682691017,0.516148325800579,0.8057327621859273,0.27666069516664876,0.5903532273173686,0.05838301331750685,0.7975561148916486,0.41161161817663494,0.6184700703622394,0.062115820313813526,0.9458076058810103,0.7655504868691565,0.9654600712651384,0.8188110410399393,0.5724073657902925,0.09505983019306836,0.6882126680513623,0.2815728070117233,0.7798211450815878,0.40464247362295747
22,3.250921564927996,0.44627540829514745,0.8648284246004239,0.6252214171185174,0.6017365611311318,0.1678654211281526,0.7919921540979027,0.05101425636010677,0.9604504532163888,0.8845980589195391,0.7134720244129528,0.36637243039290024,0.9479681825914601,0.7435252335302471,0.9691195700321542,0.5561824820390964,0.9103591174692124,0.6529651700336064,0.8749517948697196,0.4890553311622847,0.6736356165591181,0.05635107171449779,0.8246739542785342,0.5953533346295705,0.9590215388992521,0.7081263176121666,0.8506280019511905,0.5161929259193386,0.6975717104352029,0.39533315791180956,0.8602221030453626,0.5619586676801649,0.8409360380992272,0.3614917337316072,0.8304669496693705,0.3638556035751669,0.9809024191099995,0.9135073144324763,0.9850727638018599,0.8089898053704809,0.9253980054406528,0.6188529435381253,0.7508271204697134,0.3084657379494928,0.6424061144626909,0.28898491791292785,0.6769026485837143,0.3105672805391052,0.7495883485984307,0.4117063570620862,0.7531774051050212,0.4223432187864265,0.7246362745091899,0.4462326008334816,0.82157481905538,0.4855812611493606,0.36866684289364704,0.7979326984600671,0.43149157322039566,0.5726201188807643,0.11123329335321598,0.9537095814921174,0.8485987429872489,0.8969981417508222,0.6063039822258871,0.8497521427111253,0.43753053010408444,0.8504530689242028,0.40414292097637616,0.791744783929732,0.5108807260278848,0.7908055977960032,0.27592439330060975,0.6046933965510402,0.057854836853537615,0.8313742292471513,0.43743380983386804,0.6875247686684993,0.09061875209341286,0.945280709625117,0.771356041657748,0.9574387096504328,0.7139642063768707,0.6348304998938078,0.13584494888231616,0.6798180121325246,0.30264835142771523,0.7896650973142271,0.40905514062141146
23,3.205861461749439,0.45168017859240983,0.8276669670596601,0.5713931968539173,0.5806709092561767,0.1283587200023015,0.7964456087282437,0.06423408078508097,0.9682929034595702,0.9023987399124914,0.6163853418809798,0.26224058164666664,0.9455630747997902,0.6943890555946969,0.9730194361548494,0.49530268720285847,0.9018895631649215,0.5677114187804762,0.8615034740066606,0.3673388481363071,0.6596009663370067,0.052555230738508464,0.7340124520228399,0.45360119892387596,0.964158147860836,0.7570966357497462,0.8154458906885699,0.4957224163580352,0.6778063748271275,0.3901365144664829,0.8691660169779177,0.5656478139875248,0.8593947717120864,0.3559583614380512,0.8401199636936849,0.35218788073452334,0.9899310274886237,0.9513560493654916,0.9936549373986371,0.9164498842460577,0.8951869756404621,0.5444411920125545,0.6916271542620597,0.2468604425824564,0.6474438033534278,0.28780090591147917,0.611523390713681,0.22339389157939415,0.6744852755895028,0.31619109287648633,0.753979813932607,0.3620343673065194,0.6798627935517568,0.39177822035060933,0.8011091167139106,0.4506376702900997,0.3738655388139924,0.7733879612402981,0.39159938329214383,0.5427797576852239,0.09391433924178247,0.9652442256139246,0.8718814557322321,0.8969460614670614,0.5510699005661285,0.846571872019433,0.37567994463787624,0.8350046277410246,0.2936940650365836,0.7088573075102393,0.37180544764618817,0.7416917458277396,0.2227271978835994,0.5513623626322467,0.05789464738939536,0.8397435032126348,0.4494392399142202,0.7290487643099126,0.1004314896162183,0.9577953688618135,0.8212468239022014,0.9749024332091004,0.8148260138737689,0.5675120268888636,0.07999423304964215,0.644926920749973,0.2724462693984934,0.7717183292646326,0.3845766967453648
24,3.170016524374604,0.4408706379978851,0.7796142329945646,0.507844651792052,0.613326221299372,0.15250232132614516,0.7508870805304783,0.05393832340678137,0.950985599334579,0.8584482579502792,0.5233373133589282,0.1481351666981632,0.9076428904877116,0.6329008554247487,0.955700251669536,0.4762925705041757,0.8841506965772821,0.5834984311295778,0.7953328025542142,0.3414537778872967,0.5883511829537282,0.03326611449365812,0.7648136614868148,0.48621164838160336,0.8968816171498918,0.5131994069297754,0.8089630780314172,0.4888570526608618,0.6971279829632927,0.3502944611204767,0.7930812337299182,0.467977747670831,0.7619661485346574,0.2408368422342561,0.8068876103441613,0.36145679297547345,0.9889498762206415,0.9498892715108174,0.9731317953874754,0.7435748574056987,0.9051302007869813,0.5090519789165429,0.7128255813339529,0.2691386285138617,0.6413813580654768,0.2510284545384369,0.6308276668461286,0.24143435102049654,0.6738252214395878,0.3514851354851138,0.7693805684364299,0.4268484858839967,0.6533628618408442,0.3703979472175296,0.7779947974753102,0.41576782819533276,0.34972244250594764,0.7398623111479994,0.35515112798178566,0.5814624017194444,0.10444276794838549,0.9461214582540062,0.8258702648962639,0.8608482614738413,0.5084022219543285,0.8314318651733082,0.4052099718701104,0.7697309944847973,0.2628459926292366,0.7342079534044306,0.3822752445258855,0.7475516005064611,0.2813460591462426,0.5990448523476294,0.04237247762329413,0.7627652195402818,0.3575876087729896,0.6171188455756083,0.0606133709244541,0.9533380754488285,0.8138945692720948,0.9465881949411671,0.6455387364558284,0.5893814548831144,0.09538839872290061,0.6226112160345988,0.2340215533409978,0.7534709803290344,0.35833069107098653
25,3.1366164863858934,0.43728704030078724,0.8313171051236636,0.5761737178811751,0.6419363540463464,0.2001204829465951,0.7869600572780334,0.0673014093228994,0.9559527583726636,0.8884924885713638,0.6442176565792175,0.2644959342777337,0.9450161832495609,0.7204532645900825,0.9727191329257379,0.5625281757290126,0.9272241754524609,0.6474664466724962,0.8210137063422371,0.4231152923781411,0.6285745683817479,0.06355394246659132,0.8234783080739464,0.5814258341619103,0.946841658765872,0.7368047934184005,0.8442286096360999,0.5530609339554144,0.7395835878492235,0.4224795720418598,0.8122577406542437,0.4875514675584277,0.8367116412730566,0.3140654276158278,0.8507604165331494,0.41931322513559516,0.9913361893204367,0.9577299833476223,0.9906475747929393,0.9053986780238075,0.9170184349943222,0.5960939475059928,0.7308617840246684,0.23985178846990618,0.7283338025896623,0.3260204375556859,0.693760287431427,0.3376031162343614,0.7544030784605988,0.39490432235855555,0.7806897360005148,0.4693156937209975,0.7068876693564148,0.42361765167936866,0.8193358545195479,0.4838053087546086,0.3430258172526214,0.757253973656956,0.37571405439567473,0.5979814115283483,0.11829574968469439,0.9532752474736889,0.8592855173401324,0.8921278648008161,0.5923759125445713,0.8705168224629624,0.4498060932237547,0.7806221317527277,0.32521387172544636,0.7869652878907546,0.45535474729328884,0.7696485948246793,0.26936603220139416,0.6041727896675322,0.05064607004724768,0.7748621605152676,0.36018742923868496,0.679761997121767,0.09557512480311749,0.952868832298332,0.7914876446771618,0.9658577481865516,0.8073022534775423,0.6433320532640532,0.13898328533742613,0.6656769674871307,0.26761351739337746,0.7796615921954377,0.39714715355890096
26,3.100177497900747,0.466631418164728,0.8232904118608309,0.5513665909705293,0.5854401819303838,0.19563744872553585,0.7790118894299941,0.06425253649331256,0.9233736467452319,0.8238521249249923,0.5702980372457178,0.18179566415687048,0.9316163006487762,0.6858644550732916,0.9746762715177889,0.593067793399461,0.896506262310589,0.6391974350182856,0.8089932664565131,0.2605486554044029,0.6930893378683465,0.10483248252983546,0.8155758011905254,0.5319377030868488,0.9468567066674538,0.577621607724941,0.8498832038041528,0.5593944994547314,0.7217171609624674,0.4250969654520773,0.7987836072210494,0.5247581251373652,0.8588464938264694,0.42333550891809746,0.8563940766129375,0.483731197221876,0.9925850328707738,0.9632609002576286,0.9901773688185846,0.904151845225506,0.9096271405931754,0.6047184066472155,0.7326226820562642,0.265845902995626,0.7038713873100133,0.3206917436548043,0.7027779474232208,0.3334699215958189,0.7194546520213514,0.35078876659756975,0.8145530985027445,0.47597670384502233,0.7695247302163591,0.4772619382379399,0.8142133344658353,0.47394065087498405,0.36417305489470436,0.7537524305118414,0.3548595236927186,0.544464027725178,0.11365996153712066,0.9179966674311347,0.790279882030073,0.8832973291134951,0.564730684133058,0.8318922700538398,0.409241274528261,0.7741013073769909,0.20104184722141696,0.7873365429165624,0.4101567069404226,0.767285533406715,0.28999855466472063,0.5822073084138331,0.04729356483957387,0.756868567613298,0.38929460467632837,0.6814244247203718,0.09408046692589087,0.9536632842199712,0.8036592123670915,0.9706340541713052,0.8087979278870451,0.6385855069815226,0.13732766227259294,0.7205906251886046,0.32697358299955387,0.7709399919896444,0.38275969711439123
27,3.0629671986438374,0.42991422864528256,0.909224599590177,0.6797475033176682,0.5276974509217097,0.13798073211557993,0.8130040806107476,0.06721830526847053,0.9623973067707848,0.8961773524163382,0.6793103369594202,0.28967696216836725,0.944545308041853,0.7254741079376,0.9827611680994999,0.7184394805001035,0.9334520238758074,0.5923590663360796,0.9135246498678785,0.5550931030514312,0.735069688693845,0.10633005125009673,0.807247516635262,0.5407722725309474,0.9849337927235329,0.8139935450581459,0.8658536934615823,0.5933604238373051,0.7450023630410645,0.4248487515120499,0.8152212562017316,0.5742461255133091,0.8584327031804609,0.40393205912190117,0.8500655078146384,0.49140108587900305,0.9905496495215058,0.9570159139274466,0.9942869273234494,0.940439265712307,0.96571584652479,0.7304310822749804,0.765341725099265,0.2930160920042948,0.7153502407217176,0.32403252438024,0.6465668810523895,0.27076259091990046,0.718715385343949,0.39985081127534416,0.7729937457710864,0.4462312773767897,0.7523951536386186,0.492002272664051,0.8326791923648756,0.5178781830134519,0.32989690721649484,0.8250891511484346,0.4577595461493907,0.4953339327004103,0.08456229007647421,0.9589156916040551,0.870741276398994,0.8825301464719459,0.5767876691400539,0.8647641593984045,0.3820999503868618,0.872566879691123,0.39684821802870207,0.7776386640663627,0.4296281962603917,0.7800600786414624,0.2879866147346222,0.602454908399907,0.04783872271743088,0.7761860408609553,0.4409538243788629,0.6862995277265804,0.09303003354632311,0.9507030776526332,0.794726324314453,0.9746493660772921,0.8570691700368169,0.5865056207800932,0.09707708845252487,0.6899724876385739,0.3015524180631806,0.781577982190549,0.4079107561790056
28,3.0521513841754753,0.4466278933145341,0.8005528291542969,0.5359537521170008,0.5170799267504816,0.13682019834789816,0.7607782976414732,0.0686205906874745,0.9198665233323733,0.8166493856803504,0.47021548136080316,0.1163078489211341,0.891204998158375,0.6005344461954306,0.9662244023521763,0.647897639834766,0.8781679935161737,0.6041391051049861,0.7571544278915997,0.3412388806463734,0.6859424653911389,0.10213370750577075,0.7949137221617918,0.5517814220862636,0.9298546721756467,0.6321261060912959,0.8374921919365824,0.5481289904373474,0.7452436114048162,0.4614553929400149,0.7404241768072684,0.4529871262405441,0.7812521946570417,0.3151040908775358,0.8242104951700789,0.42519508596888866,0.9952207227073887,0.9788486004095639,0.9821727215301616,0.8632917104501877,0.8987369096427387,0.5980719330657479,0.7141471128664358,0.25728979885756476,0.6642130887716979,0.31295330946836103,0.6286413097293605,0.26564136625819534,0.6900803455706178,0.3425879431697519,0.7307486726054783,0.4325012730483553,0.697146124940434,0.4179606661864107,0.7808340545471704,0.4548546296383543,0.35113225834875317,0.7473386769622449,0.3656788908553975,0.4784316867192987,0.07836242717191938,0.9199599833865352,0.8010393443473078,0.8470197134659891,0.483263314739901,0.8277887916589982,0.3941310763377014,0.7279778492499022,0.2415959558469006,0.7600016936644851,0.4349590784299366,0.7623448326323894,0.2687118539358684,0.6065155206433178,0.04970311269408273,0.6990504871779296,0.3257228517830013,0.6138013292431395,0.07043156898138177,0.9570765989390255,0.8225691601948908,0.9379821197763448,0.7501746322983679,0.5803430750309934,0.10961253203816482,0.6553894934869746,0.26274949904432365,0.7414014568025046,0.36391368657994305
29,3.0239689909267504,0.450475854776172,0.8614682128216777,0.6201315472843716,0.5383396162655236,0.1604991664628696,0.8183799423695642,0.09547987953450258,0.9519157316429601,0.8760578660366752,0.6530097316277574,0.2867703820920777,0.935371494278846,0.7106511715940209,0.9785154365030438,0.6781827526456106,0.9252000002993457,0.7031861387470356,0.8142356881851401,0.44081392031064415,0.6898666244804972,0.11995487602502682,0.7682683368940552,0.5565987440697016,0.9392928866940327,0.6353068814116775,0.8727912322982574,0.6150033122572431,0.7587729305627983,0.4641598177309593,0.8084044868377401,0.5307241110450049,0.818851313480521,0.43369460224208134,0.8252992773356617,0.4502659467637124,0.9959407624041005,0.9805483497459417,0.9888049745761242,0.8712708702372857,0.9339966006319698,0.6535627621423878,0.7821998817267888,0.3300191766862951,0.7284041910389968,0.334242407532038,0.6341056553301346,0.26640377527614134,0.7405638233648568,0.39974710101028693,0.7748355907285883,0.5299756482619373,0.7375853274407818,0.47282860170864494,0.8182469134546064,0.5083107618790067,0.34919376156489557,0.7970003870167537,0.4041157608225555,0.4896930846742216,0.08336515383067591,0.9489303984707712,0.8457067070262265,0.8772541671931192,0.5655905475226627,0.8498019000094119,0.45738921144463823,0.7725386130726686,0.35604691411354217,0.7282418709996407,0.4413109587641957,0.7968350947069716,0.3190303415036145,0.6259585279536748,0.05452756430134907,0.7664415304280047,0.3756171253994625,0.6279104714416816,0.08306752991549339,0.9589485293538915,0.824471427483706,0.9612386007747977,0.7754653871535623,0.5823983888414179,0.09382795160518248,0.6897069322612983,0.3051427890664538,0.7648598998132216,0.398978357996888
