epoch,train_loss,train_accuracy,train_1st degree av block_rocauc,train_1st degree av block_prauc,train_anterior myocardial infarction_rocauc,train_anterior myocardial infarction_prauc,train_atrial flutter_rocauc,train_atrial flutter_prauc,train_bundle branch block_rocauc,train_bundle branch block_prauc,train_complete right bundle branch block_rocauc,train_complete right bundle branch block_prauc,train_early repolarization_rocauc,train_early repolarization_prauc,train_incomplete right bundle branch block_rocauc,train_incomplete right bundle branch block_prauc,train_inferior ischaemia_rocauc,train_inferior ischaemia_prauc,train_lateral ischaemia_rocauc,train_lateral ischaemia_prauc,train_left anterior fascicular block_rocauc,train_left anterior fascicular block_prauc,train_left bundle branch block_rocauc,train_left bundle branch block_prauc,train_left ventricular hypertrophy_rocauc,train_left ventricular hypertrophy_prauc,train_myocardial ischemia_rocauc,train_myocardial ischemia_prauc,train_nonspecific st t abnormality_rocauc,train_nonspecific st t abnormality_prauc,train_normal ecg_rocauc,train_normal ecg_prauc,train_premature atrial contraction_rocauc,train_premature atrial contraction_prauc,train_premature ventricular contractions_rocauc,train_premature ventricular contractions_prauc,train_prolonged pr interval_rocauc,train_prolonged pr interval_prauc,train_qwave abnormal_rocauc,train_qwave abnormal_prauc,train_right bundle branch block_rocauc,train_right bundle branch block_prauc,train_sinus arrhythmia_rocauc,train_sinus arrhythmia_prauc,train_sinus bradycardia_rocauc,train_sinus bradycardia_prauc,train_st depression_rocauc,train_st depression_prauc,train_st interval abnormal_rocauc,train_st interval abnormal_prauc,train_t wave inversion_rocauc,train_t wave inversion_prauc,train_ventricular ectopics_rocauc,train_ventricular ectopics_prauc,train_ventricular premature beats_rocauc,train_ventricular premature beats_prauc,train_mean_rocaucs,train_mean_praucs,valid_accuracy,valid_1st degree av block_rocauc,valid_1st degree av block_prauc,valid_atrial flutter_rocauc,valid_atrial flutter_prauc,valid_complete right bundle branch block_rocauc,valid_complete right bundle branch block_prauc,valid_incomplete right bundle branch block_rocauc,valid_incomplete right bundle branch block_prauc,valid_lateral ischaemia_rocauc,valid_lateral ischaemia_prauc,valid_left anterior fascicular block_rocauc,valid_left anterior fascicular block_prauc,valid_left ventricular hypertrophy_rocauc,valid_left ventricular hypertrophy_prauc,valid_myocardial ischemia_rocauc,valid_myocardial ischemia_prauc,valid_nonspecific st t abnormality_rocauc,valid_nonspecific st t abnormality_prauc,valid_normal ecg_rocauc,valid_normal ecg_prauc,valid_premature atrial contraction_rocauc,valid_premature atrial contraction_prauc,valid_premature ventricular contractions_rocauc,valid_premature ventricular contractions_prauc,valid_qwave abnormal_rocauc,valid_qwave abnormal_prauc,valid_sinus arrhythmia_rocauc,valid_sinus arrhythmia_prauc,valid_sinus bradycardia_rocauc,valid_sinus bradycardia_prauc,valid_st depression_rocauc,valid_st depression_prauc,valid_st interval abnormal_rocauc,valid_st interval abnormal_prauc,valid_t wave inversion_rocauc,valid_t wave inversion_prauc,valid_ventricular ectopics_rocauc,valid_ventricular ectopics_prauc,valid_mean_rocaucs,valid_mean_praucs
0,4.763286398217141,0.5321606916598345,0.804381079891966,0.22248549432248155,0.7554282591177933,0.016832953409476634,0.9691945588141593,0.8108378723704213,0.8960024517128551,0.544919933967227,0.9085145010464248,0.4708887873783199,0.37698462553335566,0.005127003883444202,0.800665259994684,0.1472812549057085,0.7627705118631051,0.03099433837384883,0.8454872454432264,0.0986362677261457,0.9003982848040318,0.2513092102162713,0.928018069047679,0.13705514165177302,0.7188000549256509,0.15959394479936054,0.9015661744248157,0.26796632074216614,0.6891072285208708,0.09674125629073774,0.9402745692153017,0.7814764428317663,0.8542319587499558,0.2626898497021299,0.9058241521552581,0.19324342120636553,0.7001326065629445,0.020019127619472842,0.6278177387375803,0.05275110239757131,0.9011934588160355,0.4928445898143578,0.8545472123880378,0.5295813810076697,0.9779563103618054,0.9277579665742507,0.6146696812363719,0.05001291505195189,0.5948691290790193,0.04900681427130532,0.7446156173500952,0.17391025394120518,0.9800952957268293,0.5547209659991807,0.7590630914333565,0.038727171281007396,0.8041707084056746,0.2736078437679858,0.535738242528136,0.8150973080221143,0.22050310841017906,0.9721263431421756,0.8117290671584588,0.9078179107978817,0.4602358513527899,0.7863530226292034,0.13320865073194002,0.872758666876314,0.11783557137269333,0.9102492723353212,0.2826404729576828,0.7078934389759322,0.15252571585760488,0.9054435913546535,0.24472613522232145,0.6905361101366035,0.10923657171133466,0.9369605051825707,0.7781759616492989,0.843425344237821,0.29170954565345586,0.9010861621155739,0.18479042509415192,0.6003768263543421,0.04484669727391914,0.8262499844063821,0.482581127751916,0.9746578828075508,0.9178698608015023,0.616083888443175,0.04955621805401733,0.588684764645466,0.05797123142165043,0.7304721526412692,0.16607200935485325,0.9793027292005879,0.5860629669398616,0.819240837068681,0.32064616782998057
1,4.28819009817087,0.49457156343941766,0.8106203616950676,0.31139473087387726,0.6725136661892619,0.0199763048711111,0.9662508373017722,0.7986693768412628,0.8701322013086374,0.3093362378231684,0.9579522823582902,0.589686610096291,0.5377373908463612,0.009510511296526119,0.8697518754675194,0.22862171639318232,0.7289281434198304,0.03526290727115042,0.81028261756522,0.10122316909478181,0.8656621510482554,0.32130560137939784,0.9363809985711046,0.23132739881685566,0.6767157633646756,0.14053978349135732,0.8557348970809635,0.21669847747203697,0.7095057172664415,0.11355321375378946,0.9434338714826281,0.7985178326616166,0.8282349942072137,0.3637610265068292,0.8903981395412444,0.22885456518945219,0.6320964035308636,0.02215925321040027,0.6319285831675554,0.06797415861385579,0.9301599077371457,0.3615095797026888,0.8610485616896817,0.6053319660972836,0.9790162485997281,0.9418410901698769,0.6558986439032641,0.06331139510364851,0.6002870075580502,0.05945156183140049,0.7319079606967519,0.16463088650533161,0.9773253761566038,0.5820560662477239,0.7168604293111039,0.033663963705493176,0.8017320381876013,0.2859321994451996,0.49929194305731533,0.8123674606602882,0.32302890764354497,0.968025207995136,0.7937969557038873,0.9533309875273724,0.5700233934414959,0.8568671463125841,0.2159528123396041,0.8427716460804696,0.1321264255859745,0.8656868881954755,0.33073759764585736,0.6699991378073713,0.13433968203677515,0.8609225001113446,0.19524334731089343,0.7050328680619058,0.12465925627460941,0.9399945972224782,0.7883911405163954,0.8058013474550734,0.3682273456117352,0.8932724337136101,0.22640190907503363,0.6082741196286576,0.056944333171299426,0.8386956666375586,0.5559232162560848,0.9732837276581987,0.9292037750794616,0.6468811331035366,0.0638857403304022,0.6008015842011981,0.05785666241979991,0.7069101474322694,0.16189954745912852,0.971493033262824,0.6063871006948398,0.8168637701614397,0.3492120604524644
2,4.104224109859343,0.5427442796452262,0.8548945124665549,0.33909353468948433,0.7183492508615583,0.013399376926076996,0.9722581368293812,0.8480427289196082,0.8505575470063093,0.3411757151921134,0.9544338234651192,0.5803315446796256,0.4259083341280263,0.006729015550049449,0.8296890474201708,0.26037270669173196,0.8315822626451079,0.06095833819590836,0.8675192122690143,0.11711143649646842,0.9265557063971087,0.4553917989513725,0.9611450688713167,0.5369073307220178,0.7613188756625885,0.18056158460121938,0.9211668002857867,0.2979990015410917,0.7452753114229991,0.13656696168608284,0.9472342455467592,0.7791863907549029,0.8726772108298277,0.41580250791326717,0.9454901463227107,0.2862321643851023,0.787919411579758,0.034334702104779506,0.6619319848072074,0.06943073051156735,0.9186491104536227,0.5022581338422618,0.8891993628250076,0.589020724705846,0.9748888476634929,0.9036069623118974,0.6738358177947249,0.05610305569135798,0.6631451170681755,0.08198729794949544,0.7257918281810929,0.13075441807324711,0.9844516027348414,0.5972660293524523,0.7573653703504548,0.04226835495850664,0.8304901461440266,0.3208478721258346,0.5422970857866886,0.8577924636374963,0.32389726368423033,0.973009545315585,0.8417236676167725,0.9469700955289623,0.5713988461369657,0.8100725642682166,0.253013686370052,0.8845444102797044,0.1447063306248348,0.9249177270579421,0.4609598103526522,0.7467388639218767,0.1748253056995539,0.927960597631544,0.27634301246919296,0.733669011235912,0.12911102993854467,0.9410952451194488,0.7699875018399324,0.8460196620110453,0.37122431972440195,0.9459787033316445,0.308543738993332,0.6441370598143288,0.059647526032412426,0.8592105263157894,0.5562984847747626,0.9704745443468922,0.8925022748657128,0.6635743629412241,0.05817145659070053,0.650137983271177,0.08553805644707953,0.7125360377758615,0.13941451942018293,0.980884660565698,0.5852529552904048,0.8431433718089658,0.3685557782564064
3,3.999763871159738,0.6153387493478423,0.9130648413587311,0.4669739455343859,0.7226655991603759,0.017104142382153426,0.9829920032208878,0.8684926287310434,0.9145610552407888,0.5107348081366502,0.9572704281726682,0.5857177690020269,0.51881528330296,0.00739967530004217,0.8833182157976688,0.34606505590977976,0.8059512699972144,0.04364475881176269,0.8513746121682444,0.13335051736290923,0.928351554672018,0.5112828216431339,0.9497788946396629,0.5809562769738352,0.7467537200031241,0.19373401672258564,0.9254639427108428,0.34930112983182227,0.765118765518689,0.14248785573648012,0.9544729325652281,0.7853604524882788,0.917759407542445,0.45421420222278625,0.9322177013290565,0.2524181793362298,0.8908729234368146,0.09993463951953736,0.6646438398508235,0.07949039468035124,0.9415553775394018,0.5067086509929251,0.9478535596884897,0.7281061670933278,0.9887963847804779,0.9658546600797071,0.6908191920046184,0.07916764249790426,0.6634344355148925,0.12038346313700829,0.7427252836448398,0.15722866282750333,0.9872661201620241,0.7382794394236296,0.8021231164901386,0.05038826228634739,0.8514822392782639,0.36202889698756097,0.6085563091600209,0.9089887349788749,0.41467151851031225,0.9837938795578642,0.867579252577502,0.9501145003831863,0.5710079082138283,0.8642512386198017,0.32152210779987744,0.867469804969805,0.14463597568655207,0.9313527712770269,0.5041799947506449,0.7294815921873752,0.1725801640078117,0.9310252426484038,0.3358338502062759,0.749301869201281,0.12744655882756073,0.9467876909006022,0.7613901941542967,0.896209896599985,0.44110967117712213,0.9324095022624437,0.23366644903672137,0.6435477300325121,0.06300756044194647,0.9290802780238103,0.6713774445920079,0.9857265164504084,0.9553163682599085,0.6818385982746951,0.08035990709704632,0.6573000917376262,0.13091913526738289,0.7287150228005328,0.16192848372886454,0.9782507918042807,0.7358337948961555,0.8576655659321325,0.40496664943325356
4,3.913730884053829,0.47641052396213757,0.918334337236878,0.49908977407749333,0.7066006838539328,0.01553135959812047,0.9848038331274951,0.9062931298494376,0.9312022022519785,0.5457032005359658,0.9735487573801369,0.6776276461778391,0.7226711484436994,0.05543064266392013,0.9223239055892132,0.4486839202332924,0.827318588600229,0.06097961741213469,0.8768090827792956,0.15176426646555882,0.9376829338742813,0.5527230360965389,0.9632028626496831,0.6460513269036251,0.7620506145815293,0.20486977670289205,0.9367281217675726,0.42902453949798813,0.7533648926893355,0.14282463310530205,0.9570446344006575,0.8266522598955678,0.901472875703888,0.5298038095468579,0.952473362459349,0.5308913922203363,0.8217407807267659,0.08634388737629294,0.6765045874218396,0.07032560239773405,0.9694931407444608,0.7173317098585307,0.9350306649053886,0.7370252632144456,0.9875971079786928,0.9669371477802124,0.6988064841132973,0.08251514284895321,0.7217611932466205,0.10758981728962327,0.7808258527984078,0.192151721058609,0.9838801294651268,0.6524443483241107,0.7525986300576599,0.04905633075799174,0.865032274401756,0.40317278895886566,0.5071923678914809,0.9233136985559086,0.47703926837781707,0.9849111001345205,0.892497594932096,0.9676046474287803,0.6666887758008737,0.9021944572452919,0.40093099236329305,0.8914822425851837,0.17854058754748908,0.9361699673704253,0.5467943323866873,0.7441203512434369,0.18189300219671872,0.9362464760815241,0.3696066325638494,0.7376275885955141,0.14498523084370013,0.949530337683096,0.8066587896829729,0.8781664502073075,0.47417854983596036,0.9454811550399786,0.49345975130177666,0.6530210740726233,0.06432581653228259,0.9025478931982718,0.6762342492729307,0.9835315100500369,0.9583883270622772,0.6986050823583524,0.0947160135709339,0.6916011083881519,0.10530351328756045,0.7656168324210937,0.19617482754691978,0.9778227713585893,0.6879359644838376,0.8668207760009521,0.4429659062942093
5,3.8448760502975343,0.5446324314923853,0.9140949765500764,0.5840668372200667,0.7411515378416806,0.020275386652619055,0.9833872219429923,0.9077593531579234,0.8993399164909223,0.4509319893607766,0.9668688237402912,0.6313429312419883,0.6936074747222001,0.0326908593832756,0.9089375793688709,0.4647733637979179,0.8223493672205862,0.06369135587434188,0.8673010144729817,0.14548967580546376,0.9117818822033293,0.500369421480634,0.9594492904112844,0.6378391094289039,0.7457736855196627,0.1951621279376924,0.9392505566924761,0.32805320176387065,0.7591453757442213,0.16236664832902378,0.9570617125485521,0.8119645488475387,0.9179077169527347,0.5649954855397901,0.9513725707691144,0.4651838001867209,0.8601450885045279,0.10699651445817268,0.655962851312133,0.08112121360224642,0.955221534688666,0.5972023569267254,0.9388676745345867,0.742122243607954,0.9873461291638059,0.9694510842346251,0.6017601220045816,0.0658942478028745,0.7151504508880793,0.1425959454061755,0.6904617059950257,0.1500429576939858,0.9855339880936581,0.6573017695049889,0.7609013700955363,0.057202190934787886,0.8551900599434289,0.39025506000670673,0.5403592457330253,0.899527106064841,0.5163073776735191,0.9816577626733395,0.8843426852563998,0.9553491777722358,0.6159626180577567,0.8780735079785416,0.38807534961505386,0.8748773417891064,0.18400370117822926,0.9084424306097285,0.48033022062331954,0.7194357388757044,0.1757360893814387,0.9380890911373013,0.2938682522640335,0.7478343567259871,0.16556095758619033,0.9499354404329879,0.7882608901401296,0.8927679620744745,0.5103717521761608,0.9460680582004112,0.4290695765171297,0.630131517098202,0.07401802599114574,0.9051889322737992,0.6711509232218709,0.9823211098535054,0.9607868306356724,0.5939477946307006,0.0715513881935111,0.6938743466677385,0.13533007682423537,0.67992920299209,0.15922472106597457,0.9833907269840056,0.6253548409795294,0.8505706107807738,0.42785822512533167
6,3.795103169195975,0.611537601550272,0.8946939997368867,0.42570008112452407,0.7066795023235892,0.016694845389311812,0.9861474372273856,0.9155277807542993,0.9224705974616866,0.5627511918017215,0.9669303259527251,0.6468548084242572,0.5866068124294073,0.022039259409748192,0.9082227922823108,0.4568043074680794,0.8263850259042027,0.057635794766381206,0.876045759913812,0.14328410015809115,0.9211074747367504,0.48654948557957567,0.942043491327649,0.5745270795795444,0.7702789301977322,0.2727625501226259,0.9150230771691618,0.33196813810754644,0.7843961564299048,0.16135938148776446,0.96625203876977,0.8550895353802366,0.9078631682936128,0.5645608208016865,0.945857425101682,0.402877355497288,0.8276569307072192,0.08483051340790809,0.685020009224926,0.090474205493671,0.9607671455206083,0.672506125677981,0.9290321616482266,0.7495396397449596,0.9782938130403529,0.9537743895664497,0.6367503318539327,0.07728089276744218,0.7229811859962072,0.1624245281563365,0.7661906612056346,0.2011500272870867,0.984994424324827,0.7036672029124712,0.7872837596325986,0.0601170375588149,0.8557768310523259,0.3945463362379927,0.5998360289185362,0.8927304994393053,0.388726242001363,0.9855439518893151,0.9043157862090639,0.9559388177365705,0.6175708498528439,0.8774133517371546,0.3971958660075372,0.884610652993006,0.16878312353317124,0.9210160533592804,0.48088750539189845,0.7510194352432551,0.2490101320175182,0.9047815971121812,0.2897744094452444,0.7661231470777874,0.14997963263755348,0.9593225816395083,0.8350935854560344,0.883099611650968,0.5040269203495517,0.9424802145390381,0.38065745056677436,0.6549181323201065,0.07121410623769733,0.8906443490808081,0.6911382025099796,0.9719187090512789,0.9432266560560315,0.6223682370896129,0.07416166442240432,0.6975612278522301,0.16593503982799349,0.7438087830107813,0.2000587017456279,0.9809336346919292,0.6665009545432797,0.857170157237585,0.43043456993745105
7,3.747242460280234,0.5820973391965417,0.8805624828475591,0.49704861723978755,0.749355140467995,0.024410638809122198,0.9873738238502906,0.9212833948605123,0.8949960004932022,0.47632916968240624,0.9694075548325076,0.6617512807980523,0.5701433684543906,0.04081465911946201,0.9162496804023056,0.47662549229818724,0.8389338586685535,0.07319325729012445,0.8760852180308579,0.14689367175026066,0.9220226564186355,0.5630785683979292,0.9751966530735646,0.725146749902236,0.7844312574068981,0.28494199333555353,0.9405728043244125,0.4830564724631911,0.791994368212015,0.2102436821911167,0.971852651243175,0.8825973024594257,0.9269865348569395,0.5785018884744746,0.9354422407253418,0.337344699880752,0.8476791263271066,0.11069353028736933,0.6696961247984783,0.07824699066322277,0.953047314806206,0.5081259180928113,0.9552677102640256,0.7823890797641858,0.9820999448653038,0.9552726222927381,0.6199219729589605,0.07572206087703211,0.711022818581278,0.159528112671319,0.6978481320223584,0.1536421797497603,0.9840516108828236,0.7879562151227602,0.7990927793388477,0.05915855676652241,0.8574568084871864,0.40940728908297463,0.5683833942013863,0.865105068662534,0.4343614753263905,0.9864714442738903,0.9091286530241042,0.9576556971769477,0.629803418821703,0.8776384751581486,0.41765316107357026,0.8729093508505273,0.16022902808641257,0.9156010328504604,0.5142654746240014,0.7582591414394277,0.24443796418049848,0.9340140629146665,0.4114313524313474,0.7713035332128138,0.17909169215761886,0.9642952376877267,0.8579341112189859,0.899385087411365,0.5183936740020804,0.9200679752150341,0.30454958957855044,0.6357158525598339,0.060494705993625074,0.9233106914002237,0.7048951062259907,0.9756662408271191,0.9438082370007134,0.6060188203796089,0.07807718804381196,0.6979439215553275,0.1466325437759301,0.6833440754818941,0.15020149971733604,0.9832968040021925,0.7371992123613782,0.854105395424197,0.4422414782970552
8,3.7061775227528426,0.5126580706069415,0.90052790597178,0.44362358075248715,0.7054849876742433,0.016034732616612812,0.9895312826486262,0.9372440100411858,0.8554069794166917,0.38694119802307786,0.9693873476974797,0.6203262497443048,0.7548164084133057,0.040145904275298266,0.8923349463903053,0.38876856040795665,0.8107805230377495,0.0644397210177324,0.8766774891602002,0.15066772253664046,0.9471075047922985,0.5479202044842911,0.9786201981737493,0.7385441515964908,0.7502148902420804,0.16911456141273493,0.9399859045562019,0.37406782059832827,0.7633719372998848,0.1473409946518964,0.9685871359794466,0.8647667931101275,0.9485385969828635,0.6079199808519669,0.962105498678237,0.5137762716155282,0.8511655063592408,0.10614125605546587,0.6634812558966016,0.06966281847187461,0.9491631943123404,0.5639536895268121,0.9619928953385107,0.7982135482423072,0.9874781792598933,0.9642843345952212,0.6649802082682188,0.08898985284451982,0.7690196849199591,0.14563758203669422,0.7046916460993313,0.1592067620328516,0.9886517400845812,0.7571428162273286,0.799077727805154,0.056675165226581704,0.864932650942925,0.3970944549257895,0.5097264664231944,0.8862887086814779,0.3916769387337231,0.9883835634154441,0.9232590622218882,0.9569590155813896,0.5713807297196123,0.8510194496934044,0.29763327545177254,0.8743059073941426,0.14237901044472864,0.9434572739905661,0.5241950894308544,0.7264964138584467,0.15423350351416465,0.9389573949560346,0.3234810398897494,0.7397203834383564,0.13211971441306353,0.9585670232251169,0.8311731316344018,0.9242724711613309,0.542582613480977,0.953610446257505,0.4695373307811765,0.6203901445415018,0.055801724312991394,0.9325625927820264,0.7101233004834642,0.9843046021019798,0.9572625800446102,0.6498429076170043,0.08291524630973152,0.7455458472499439,0.1420610831976966,0.690750405037522,0.15708930712188254,0.9807592062971332,0.7213508133452678,0.8603259872252804,0.4279081839227241
9,3.6816354689368613,0.5709423368363519,0.9141472181253314,0.550735779135814,0.7500366091049852,0.01805568139382427,0.9856221339135588,0.9194653813818613,0.9098175829506001,0.4574495671548181,0.9777674966915078,0.7037363746166793,0.7807184433232225,0.05435381396499796,0.9519360397532506,0.525608591273897,0.8597425951913833,0.0900832051374229,0.9002618613176582,0.17041433956729396,0.9501360306301165,0.5665069681376882,0.9651686510435975,0.6867706047455221,0.8173490404140732,0.2926996555159038,0.9477370026727056,0.4504245478163919,0.814681468032715,0.1963085581746743,0.9707612802449347,0.8699990357083355,0.9240596341801017,0.6076992550718759,0.9565054327325413,0.5370541986847837,0.8807501948474744,0.09570875434685273,0.6931268357301079,0.08126748335028727,0.9694652961460447,0.7228634915723633,0.952220189537802,0.7849040486064106,0.9894717513580216,0.974925193509613,0.755218049176892,0.12078772029649244,0.7479850013696829,0.17594466575742687,0.7687551267233343,0.21720893387711243,0.9834665404963973,0.6508175948590366,0.7847470974668382,0.07452585910870309,0.8852464667842547,0.4294933075098549,0.5756130282477454,0.8981228434374219,0.4602443032784014,0.9840756206636423,0.9041181587461996,0.9656806310445784,0.6504098140613782,0.9221681524224471,0.42502213623752816,0.900027734586558,0.1620533768299191,0.9457715063008351,0.5384508992349106,0.7935458709856845,0.27074421000193083,0.9416127335521945,0.3675183750877633,0.7883491874524329,0.17314147691579834,0.9601292507374365,0.8328531339370848,0.8903012482469986,0.5024564032610455,0.9393304099186452,0.4684570567101262,0.6615856476947786,0.06417877408846578,0.913451366624668,0.693334993237398,0.986085780632894,0.9684776240272046,0.7443274917223519,0.11426915881100702,0.7086530647108255,0.15257614308070358,0.7487369792364088,0.1993445372262183,0.9831029201325924,0.6452054334436389,0.8776346547422837,0.4522555793798274
10,3.6386140936137887,0.6142704529080023,0.8643580846102827,0.49598250958518797,0.7459866879753092,0.018378922605789064,0.9893864791511471,0.9353554806651103,0.893779550622354,0.48297623378775223,0.9739762961240874,0.6812324253757385,0.6207065797957829,0.037849574179915926,0.9185034199184039,0.510958801772057,0.8803681506653915,0.08600978259238122,0.9178713040763908,0.18885505722786156,0.9359792819690521,0.5761856610986815,0.9705240842652347,0.7188413395363205,0.8028955134996554,0.2852473932521331,0.9597472417426778,0.4199476459927697,0.8184642749002761,0.23510887640515643,0.9745811861109946,0.8853321457692723,0.9283891117789675,0.5855877797399787,0.9732851554947085,0.5716146683310135,0.8554026934076399,0.13505352770334506,0.6827067859877511,0.08218806598664957,0.9553017821042733,0.675871279588902,0.9585033258725226,0.7835741437533578,0.9902487828080876,0.9742161139946092,0.6671638347238719,0.08866147160025672,0.7370515612219402,0.18121685954821448,0.7987068241086792,0.20174864427095981,0.9910340475231745,0.8068185628150658,0.830783726082615,0.07088928709684353,0.8753965098718991,0.4339148983064935,0.5879108593575315,0.834338338818846,0.4156418567191564,0.9873070344702962,0.913969191363571,0.9584242333143164,0.6218182860886222,0.8732644439495599,0.39060003266934584,0.9172362812068694,0.18877502376762093,0.9299528381019487,0.536459480423647,0.776783050826536,0.23854061043657906,0.9488990871951503,0.32349126194287275,0.7928522908595028,0.19817937265180594,0.9652876822443349,0.8543102872019798,0.8966903192441303,0.49259438562806923,0.9576705422293658,0.5086428998221889,0.6455605389948686,0.06037598588449239,0.921089328559607,0.6900096825289368,0.9855804915012585,0.9653537253753102,0.6473166569538777,0.07808806928385095,0.714746226761511,0.18001704107949978,0.7728578142237157,0.1928291921752327,0.9867759795999285,0.7590718061597375,0.8690859567924014,0.4530930626948694
11,3.6059889410928787,0.6083078681274999,0.9101279515905762,0.488982184929297,0.6801514870245094,0.019001851704137998,0.9793076130116749,0.9113081232879512,0.8664768561699887,0.35866840391711874,0.972660537104749,0.6626863867241904,0.7265631903439986,0.06908067738706092,0.9210284286037921,0.5254821140019642,0.829307394256187,0.09696649626424204,0.8713785795461263,0.17068187302856713,0.9231531743928293,0.4978342558762743,0.9492503248307462,0.6028486593489292,0.7635321798946649,0.26282377881155494,0.9030514018374487,0.3881730276919685,0.7957041195701434,0.22823965018790865,0.975086471818646,0.8875220886639055,0.927068053444958,0.5820995750896503,0.9434565421283212,0.4267424363878178,0.8932393384165849,0.13817161638897552,0.6319534055075601,0.09023590995189429,0.9576940600659809,0.6676062267459256,0.9567323595916079,0.8248872067129671,0.987901303640685,0.9703236243335407,0.6207756557102777,0.1089112183791485,0.7331357603762512,0.20553217063849105,0.5990325936502656,0.15385870929524326,0.9889522655128355,0.7780176045065077,0.8230894816359033,0.06987543511174095,0.856659649247308,0.41431708538396195,0.6071401952746516,0.8958156218783321,0.42497697354567016,0.9778433235994523,0.892318200807257,0.9597244475114529,0.6179962371864293,0.8812655861036449,0.4240851910133434,0.8697034947034947,0.16469150521190254,0.9199907871081026,0.49009669981279397,0.7292724496912473,0.20669754600597576,0.8855441953392809,0.3012990053130268,0.764032748564918,0.19164957028373425,0.9621481491282011,0.8363633610868001,0.8962810637519252,0.48630297274375156,0.9172533878416231,0.36371285610391335,0.5991987543577892,0.06423215682143718,0.9150958695625054,0.7215296922288799,0.9827153867999963,0.9598506534217692,0.6090583407594792,0.09839714720207526,0.7101326531936709,0.18030130988270146,0.5766914519675193,0.13665929985026204,0.9841226553637067,0.7162594155616128,0.8439942298540181,0.43565367337280714
12,3.586140598919918,0.6238602767633102,0.9048381774960192,0.49030060174409473,0.6896043105406222,0.02302832564107288,0.9889039727853396,0.9378250729094052,0.8862776915897008,0.4819830893380793,0.9738476211000807,0.6889214804923894,0.8717348396630269,0.13027300250194512,0.9275758705995539,0.5522437714997296,0.8573588091526141,0.09505219627287755,0.909701496948306,0.22077699632847897,0.944231296178691,0.5658357836740582,0.9569555845693699,0.6799882987353413,0.7942150110021087,0.309153696760685,0.9236916296911701,0.48863042758188363,0.8176982061693564,0.2396297104830516,0.9776939842773826,0.9059530875875385,0.9402348479815394,0.6263682400028102,0.9644518131077706,0.4628409447088718,0.8751731008532329,0.15746190114959951,0.6983876513707761,0.09988321534225122,0.9574167548086362,0.6775273208468328,0.9604535520158217,0.8096878121639909,0.9906125335794443,0.9757144428171283,0.6705757895549664,0.11950495471182107,0.8392451482170291,0.2609516436276659,0.767357375272133,0.22780012916357228,0.9902838913363697,0.8175995287085488,0.8434081329449501,0.09496762012701629,0.88599737380763,0.4496260479600274,0.611537601550272,0.8836037107800653,0.41973577510167226,0.9872409866928952,0.911148604393158,0.9514348702917341,0.6033813802027886,0.8878406893495233,0.40164061468197587,0.8966384370796137,0.20548945936228202,0.935672974491893,0.5443188006957362,0.7564165553702538,0.2318673665442716,0.913482763304207,0.39824700805549323,0.7776640319817394,0.19808367769052487,0.965889732667725,0.859202549053726,0.9034299017751323,0.5100038461246367,0.937731121554651,0.39419925984274234,0.6561194132163422,0.07546069462430936,0.9223093732197285,0.7072744537061479,0.9857095052306706,0.9659546558393374,0.6568594720598342,0.10805356664629662,0.8051592889266279,0.20300994286855056,0.7437581967156203,0.21865294014441564,0.9860561270321745,0.7467144721772535,0.87121142903897,0.45802310882922725
13,3.5462764395159647,0.5796377729745845,0.8600678935538895,0.4557240750217825,0.6689903250328497,0.015331629066933517,0.9822837214842373,0.9054489197189413,0.8444959106819835,0.36689343091387144,0.974487087235674,0.6952937554414816,0.7493272522548139,0.052775829950769494,0.8797599316686745,0.3602054074004565,0.8275481655048583,0.09981997351594978,0.8505653413638322,0.16644880898355652,0.9293186309658799,0.5388125040089362,0.9546972235519389,0.6326756694231735,0.8123282777540078,0.3003809831883622,0.8883783162827581,0.3451634398849299,0.7752344670354858,0.2143491443215643,0.9700070242110117,0.8759425928076444,0.9350428756011174,0.6013582024898295,0.9642308608382473,0.4407098924037418,0.8034191539962355,0.105694523210818,0.6363337825389778,0.07860420759166228,0.950193400997482,0.6407459829395395,0.9488053140669207,0.7483645293373714,0.9802097565507987,0.9365211776073145,0.5786787157528579,0.07650753822627937,0.7439077632860452,0.17875199416094828,0.6779371001367738,0.14498950342041994,0.9866159962310781,0.7645009276935089,0.8094559709319266,0.06791668840281442,0.8511970466485316,0.40036782707898527,0.5623462771111277,0.8335160476879874,0.3897665838038016,0.9778933438566876,0.8736400554568537,0.9548883293875966,0.6206229750599842,0.8352654405782209,0.2835484479972305,0.8528842150165679,0.1643896819898025,0.9202062555396182,0.5106861713147525,0.7737125883677309,0.23718730316742648,0.8682272578199796,0.2609509277672704,0.7388918922891212,0.16999808769882266,0.958688580441143,0.833604796721187,0.8978077855089481,0.5025088820331275,0.9507601897307779,0.38632160197586446,0.5927773316620314,0.05785605761925584,0.9058585222240242,0.6454090887602887,0.974948559029891,0.9235850824122643,0.5634992630475857,0.06424182578939842,0.7120397365024057,0.1455222858725232,0.659324264301688,0.13934830220505498,0.9772662776913462,0.7111728508932406,0.839392414772808,0.4168611057125342
14,3.523164407181795,0.5649300638493454,0.8909634101516996,0.37760318337847615,0.692355801091221,0.014370948740544714,0.9767723441159932,0.9160456038921885,0.90685124501442,0.4643204923810652,0.9843897149475965,0.7195166894720159,0.7987653532505278,0.0966506428661001,0.957939351752418,0.5848303799020477,0.8588940765494986,0.10132046503393093,0.8976325049897744,0.21279194298137213,0.9419001956733284,0.583897291796852,0.9717314918459384,0.7115837319568297,0.7584300580836636,0.23620787993593184,0.9332240177055836,0.33027567223609083,0.8080275074860446,0.19968874466691586,0.9714542784397213,0.8726183434973874,0.9312866479613253,0.6094425498358838,0.9481360654199538,0.49798025393533124,0.8476931927055588,0.10851332166275918,0.6568458124700893,0.08039670027533097,0.9795165877866746,0.7987077532810695,0.9603742544199434,0.8248270052624945,0.9810948178268122,0.9615598511736978,0.6428930768467074,0.10752858383286151,0.7612816140401892,0.18528431219791508,0.7372812106462573,0.18479467614844491,0.9859602825648889,0.7573300196356592,0.8015427707138977,0.08812391000441397,0.8734532475740641,0.43060040555494855,0.5540731907281806,0.8692162947120803,0.2996045293562481,0.9705115220430718,0.8891566469243688,0.971308572554298,0.6443925003078007,0.9250041342449986,0.41776771674247193,0.8898929634223751,0.1936459708437401,0.9354578555631048,0.5178061962225756,0.723677735960708,0.19676343724471212,0.9209703654053625,0.25120159526822455,0.766167079793954,0.16129701970353688,0.956694137764704,0.8158178671395099,0.8948625125163676,0.4851844893582133,0.9038912862442274,0.4090518116842693,0.6273703435308865,0.06377609373589485,0.9166159354299472,0.6915722829209996,0.9731272883285141,0.9480455443806096,0.6202947417661248,0.08260062093830442,0.7197727452578849,0.13844224094970156,0.7067807556243529,0.16954356318743205,0.9762814281391912,0.6915952922515884,0.8562051420159028,0.4245929167979053
15,3.4930811250690486,0.5925070184591688,0.8960616917274621,0.45545080493760076,0.7772821317492205,0.043569010430821314,0.990121753500219,0.9527348560335125,0.8823212695068784,0.4873432028501528,0.962774773317478,0.6402838349657287,0.8348321827053217,0.1053079513361075,0.9452223900751536,0.4674953209644933,0.9008852389347535,0.11710062307604965,0.927296182850512,0.2410959909543295,0.9621051842697849,0.6872461239049146,0.973165426131149,0.7561517472587695,0.8282330632468445,0.3139356863272616,0.96992283374647,0.5998906851000549,0.8165929051750019,0.2056589346313959,0.9798435900141513,0.9144845450536314,0.9344402813780107,0.6163551459521538,0.962918271782118,0.5487430674891335,0.9082000009452607,0.18934468352416461,0.7078812461473539,0.09535339101252296,0.9416794234327756,0.5784504690851617,0.9646318522221249,0.8345278186120022,0.9904350640155947,0.9754589707229024,0.6642238478877176,0.1276526187724666,0.7813542577882967,0.22814326288778963,0.7171391649247807,0.17614116505816851,0.9926578827578066,0.8441713236011055,0.837504446521786,0.09753496905790938,0.8907306058057047,0.4555417112444558,0.5707684281135872,0.8628197360892434,0.3680202578474883,0.9855823736475016,0.9211726342020926,0.9351642007235559,0.5799923784147569,0.8895389269484422,0.3432551466403362,0.9184861574567457,0.19008278793453348,0.9495090884689263,0.6060280742367691,0.781954570116553,0.23701845185926096,0.9511143845809266,0.4608471835414263,0.78251580139984,0.16242152510341493,0.9644323656283414,0.8610832497120184,0.8918660382187128,0.4852798208367495,0.917337829102535,0.4453386027037718,0.6676869442594697,0.06265322813944303,0.9231328201993488,0.6898049996236847,0.9862119351995521,0.9652346284884005,0.6372358273858834,0.10312661699767275,0.7452345422518551,0.1743120207272283,0.6859694050119315,0.14901000691024635,0.9841917558431835,0.7391971410272807,0.8663149843438184,0.44967782920771443
16,3.464215502804464,0.5867928747111874,0.9000485095205328,0.5450490466049376,0.7763606297595725,0.02564772785531867,0.9917411551840952,0.9585308289657801,0.8695715797596208,0.3889666581574717,0.9792716456155854,0.6947371916815797,0.8169434093993083,0.10680395148990847,0.9585187393856307,0.6026074951122109,0.8848604406651359,0.1067710184957984,0.9364984507497203,0.26495502081920075,0.9538728525408453,0.6408318413768382,0.9740780115679337,0.7646071420499756,0.8313911979734389,0.33569089897107235,0.9680284506935756,0.5259982730951541,0.8225461003472223,0.2723847562683096,0.9785280099162936,0.8991339306370377,0.9470283333890345,0.6548409327361965,0.970800149973276,0.6514020217196664,0.8759523782194847,0.14780119910101147,0.7165507277172904,0.11234126281343207,0.9602735150023719,0.6405417214228679,0.9709275511191502,0.8412640286873592,0.989924467345038,0.9776934171366036,0.6566733435800512,0.14285348170218432,0.7676617610030798,0.24538199107755562,0.7295438778990381,0.19238639919661676,0.988699767226964,0.8281128028414273,0.8155600380784653,0.07990491350968584,0.8900687071715465,0.4684162945750075,0.5667436833867482,0.8536024831600224,0.41758776977170126,0.9865631250110035,0.9283487580428316,0.9619402092777765,0.6147174368750257,0.9162454881606247,0.4225567649709024,0.9235500853147912,0.21444228156515244,0.9393853924636028,0.5731029611365835,0.7875844448480063,0.2395493599624713,0.9547594938293009,0.4156711054598575,0.7762861422474252,0.19528448342430169,0.9620193607621117,0.8379201011435987,0.9007787922597115,0.4909366739431217,0.9336371762842351,0.5302210282021772,0.6741281483802734,0.08542524777848917,0.9285303950799016,0.6996649749119308,0.9849232993652021,0.9677719884256312,0.631213626041076,0.10879640350830144,0.7277885872698656,0.17407114625162895,0.7034074928420392,0.16468319683242957,0.9741684964876159,0.7352524651702587,0.8695006441623466,0.46400021828296817
17,3.428776786702366,0.6354127847755335,0.911758433445941,0.5168381502809978,0.7378548516397871,0.024629211226594047,0.9838707809371897,0.9315623182778728,0.8317980996473054,0.3438090988773755,0.9730312284137906,0.6500727053013471,0.8920395818369045,0.15798064464295422,0.9528312147480911,0.5833799901820925,0.8918231823605178,0.11208664054118166,0.9132939228748769,0.21423179166574952,0.9493739273194393,0.6247691165281103,0.9772966703498813,0.7614466151498676,0.7896084669121767,0.2827693787112493,0.954607998340344,0.40303096422600204,0.8629472012270517,0.2870837233573222,0.9783804566273224,0.898686331711514,0.9588661493714279,0.7021768714553154,0.9756973776329371,0.66671335226015,0.8558572624937011,0.15685781106258273,0.6954061715778195,0.10799503740584673,0.9496649891753717,0.5369387418275473,0.9662405644793264,0.852161915976839,0.9843997002275979,0.9661486320097268,0.6856604996378104,0.14390037681649645,0.8118750550641439,0.22896066436765164,0.6705059019325309,0.1450899160602908,0.9873202685788911,0.716667216411713,0.7928362053038387,0.07304571063031257,0.8864757837835562,0.447741960257952,0.5959603488112096,0.8675904635046318,0.39840205070222207,0.9770003701554398,0.8969437655474256,0.9497162827402201,0.580619937562944,0.9065347530146914,0.38752787301684083,0.8953248659131012,0.15856906322753184,0.9382078303989085,0.5403425880025959,0.7471259154718317,0.20204712209027395,0.9389693575987259,0.29182399026424616,0.8153707633684858,0.20820878511382257,0.9616779836217795,0.830795167736637,0.9140125992480064,0.5451862342307536,0.932804046774635,0.5144846154873496,0.6410709389321948,0.07499289163201948,0.9202996677519824,0.6796643159418234,0.9764260593357734,0.9531099050162078,0.6621409643623402,0.1063841315054035,0.7357619310205068,0.16560794328209913,0.6383195450962935,0.12666678354445157,0.9759885896994666,0.6225989746288747,0.8628601541057376,0.43599874413334333
18,3.400140572037301,0.6696479590569179,0.9213917817206763,0.5543565748167999,0.7622665910285914,0.03239596548729246,0.9935670002562329,0.9628368730582414,0.8102141595211378,0.36680525853509505,0.9739255564773673,0.6919004525981521,0.7324954352540991,0.09954223471135494,0.9366300292715556,0.6113197412823554,0.8800812771310653,0.12724880363671756,0.9154588276114802,0.2616616387994992,0.9435937379850996,0.6218265967528522,0.9710855195672283,0.7236710681677971,0.8291088864949115,0.39441853211567646,0.9541892841666676,0.6142370011355939,0.8394597866864935,0.3357996315390149,0.9812703381374659,0.9172693032309513,0.9449863832904273,0.6445848663955766,0.9066533167152206,0.387481656272709,0.9016378666007684,0.2142844410028559,0.7051446839486055,0.15251354785153484,0.944075074686644,0.6081364900781198,0.9663374290492934,0.8351011041518334,0.9867672529313697,0.9688904149899922,0.6551641987520086,0.16965161783158722,0.7443739971104264,0.2808624160112476,0.6700068908530743,0.17167834305084556,0.9878296203431247,0.8556594101929689,0.8611921902379047,0.1448819766381251,0.8784780413269977,0.4721857763086959,0.619810687933219,0.8850811407865891,0.42688919591213353,0.9896786645526949,0.9319339371841912,0.9470383061003481,0.6057849511000171,0.8792871018170834,0.4332566929323875,0.8924465836230542,0.20385543641078813,0.9345645265915655,0.5523040675495027,0.7784606326773251,0.25868651001248,0.9270236466478284,0.4512071178513684,0.7911719044049657,0.20220955200847995,0.9614326699348417,0.8411946992521708,0.8943045336492847,0.47486298010251254,0.8363968768380532,0.320889378343181,0.6506612088213405,0.08473278091860181,0.9157966467484189,0.6708225872902175,0.9811490288270692,0.9565742900418652,0.6296472754973776,0.12207978657215746,0.7127140562057301,0.2144074059514304,0.6458022500387333,0.1471708249088537,0.9770848050729145,0.7668295749668221,0.8541969399386955,0.45608904048995585
19,3.3723985051602914,0.669970932399195,0.9088976678864638,0.5112837429174708,0.7699297685951956,0.0332642080764157,0.9863616873610426,0.9418713891175847,0.9077350753481974,0.4867125126060161,0.9795389995777268,0.7355361205241173,0.7994966749752187,0.1240459583961695,0.9530482107906985,0.6464786768250063,0.905268100780087,0.151191214512781,0.9176920452116537,0.21363481662639822,0.9506629004852996,0.6208427812617259,0.9754036989313879,0.7487443391812344,0.8162577008394202,0.4247011252312255,0.9598504855366593,0.5765912875685784,0.8308637996845236,0.3269348822926301,0.9835103234451288,0.9290688117976222,0.9606120673324319,0.7167641208552981,0.9674828459518422,0.4950183587574771,0.8770427476115853,0.18849969060981478,0.6875258676427218,0.12193045709093328,0.9646714405830491,0.7076749901817007,0.9701276926626962,0.8380812223657783,0.9873913564551717,0.9679338383164668,0.6467657938571172,0.1724235121913411,0.7838624145031373,0.3056407302022647,0.6561231830296718,0.1760158721665887,0.9934865352879987,0.864626320573946,0.8671657341609608,0.19207871315196323,0.8891398080935958,0.4895403590147611,0.6118357307892972,0.8625100758216099,0.3917997875520479,0.9803508692673658,0.9112128457820614,0.9515296135227743,0.6392518209233293,0.8906175790302274,0.4299864954600485,0.8964029478735361,0.15046222946475052,0.9355225135676959,0.5515971111329098,0.7655975976807206,0.29361931311188927,0.9347842730633309,0.41468144461911227,0.782774924547557,0.21230121607266894,0.9643583475059182,0.8590009478837619,0.9103938116878115,0.5209278352046293,0.9123914638620522,0.39150916480446485,0.6414297465627326,0.08788966131442078,0.9236171579695862,0.6717055909960398,0.9815243139047634,0.954871622195622,0.6285530350940921,0.12039099663967065,0.7294213160392624,0.19761844797150707,0.6368445082426897,0.15007055571187158,0.9847475786319849,0.7401650946320496,0.8585985091513532,0.4573190621827818
20,3.345610975795662,0.660604705473156,0.888693310565163,0.509030353711542,0.7466217470528633,0.03766363354857572,0.9906820082513184,0.9577341173785116,0.8173592323054824,0.3593641225673554,0.9813984417553603,0.7271837172714306,0.80491535863111,0.10523110578720155,0.9229351625567566,0.530800949918121,0.8541583359329025,0.09360114555005387,0.8762095230807622,0.17197135728538193,0.9404672681419387,0.6711368788407215,0.9721598005305269,0.7452899207125048,0.8148384627694074,0.3651756639711547,0.9468288741385443,0.4324437938881694,0.8165047354050754,0.2901813454883925,0.984873801494394,0.9296083088640454,0.9420639434272531,0.6917391962443351,0.9359759602107376,0.475344862315133,0.8577853128553871,0.2303147773491739,0.696694364635406,0.1396498332672617,0.9570318083959622,0.6517488535236006,0.9624318807369654,0.8251440592556493,0.9815289389680648,0.9598365146856562,0.6317856315520468,0.11699623333078427,0.7664855668152535,0.24393207445814893,0.6874107338165094,0.17254170557091825,0.988438455677549,0.8609698327941413,0.8476824621214559,0.13504632700329997,0.8745911526601554,0.4603585438733802,0.6098233584258776,0.8376733477565933,0.3626575754012103,0.9848176477889607,0.9230947198930396,0.9590552095681555,0.6263224173647128,0.8675859757589921,0.3635017499196916,0.8506376043140751,0.14380428245887047,0.9243132620906974,0.58339003298965,0.7689492078768871,0.2536897481746754,0.9184940983682587,0.27922795424789354,0.7592927280012115,0.18315460120111937,0.9646856670090233,0.8490621404236348,0.8778468191832567,0.4897927455015851,0.8582853619618325,0.34094801120603124,0.6301713737318344,0.08067230382862507,0.9100304387420316,0.6318881296852703,0.9739881998040435,0.942394731262962,0.6059966889407485,0.07178274804741008,0.7143143355637593,0.16983844343733825,0.6520163300495885,0.1351512561158013,0.9832079126086907,0.7509244918584019,0.8442822215325599,0.43059463594831165
21,3.3021760648094953,0.6530520980845197,0.909616600769055,0.4510607627549731,0.7342423730167044,0.04493671424251974,0.9884862761232845,0.9530300149279033,0.8892773594484632,0.4992289886245796,0.979518297390393,0.7371917933756359,0.8298799036569586,0.13186245621106243,0.9565712493410898,0.6469520120264334,0.882736801745373,0.1585283992472984,0.9186644601538516,0.26895996513742637,0.9298948680346756,0.6088930079839096,0.978352932654758,0.7565849119612432,0.8231828799208121,0.36742007492615897,0.9196531687119924,0.3949220525892376,0.852525694340351,0.3643311801370317,0.9874292642759339,0.9420776968327421,0.947147086115593,0.7021061900207243,0.9632195288909384,0.5535410925608608,0.8842034344919754,0.1874754292501874,0.7328226066806581,0.1794933484557888,0.9663785654258651,0.7132771404242686,0.9637982683819089,0.8464841246312217,0.9902297235360326,0.9741491528926928,0.6417384549763381,0.15079294472004529,0.7968729945217494,0.3388166738310852,0.7258973091927563,0.21969849829027902,0.9917023809597294,0.8581739138785763,0.8898694216258598,0.21506645645475708,0.8916263668290038,0.4912983331995794,0.594991428784378,0.875974174670433,0.35839557630550545,0.9844565164796678,0.9239456642196033,0.9490993129977008,0.6455144405586304,0.8983476249589334,0.4175735594325919,0.8686406995230526,0.183941842709,0.904596764723152,0.5202590851789648,0.77315094748611,0.25297254265532426,0.8827180670136201,0.2686005957509256,0.7839643029906838,0.2003346721139428,0.9668012798326286,0.8619905847181949,0.8734995887922916,0.5047573098344327,0.8957255979314803,0.42473592133125077,0.6747816209017196,0.1049181469929868,0.9099107837144413,0.653502835060905,0.984353655112135,0.9611188598228689,0.620598048644086,0.08813322143547339,0.7398359022799584,0.2092276367582211,0.6867694123915791,0.17596880283193245,0.9771760445409614,0.7340712385849248,0.8552842286834018,0.44684013348924634
22,3.2730508303127537,0.626220466572259,0.8792009030853342,0.5572975554402269,0.7180022421780445,0.04417787862920007,0.9903989734744086,0.9628155225962298,0.8821688681841336,0.4872486913289334,0.9762574714322674,0.7435020019976488,0.8177504092304543,0.1321634890499269,0.941465486318807,0.6163537528483,0.889486092474358,0.15924429840403798,0.9060226865003079,0.242698639362908,0.9134870368859641,0.5259382099733587,0.9802499757051796,0.7802062879408175,0.8113979798481437,0.3636579073554827,0.946759783197727,0.4823390832880984,0.8102489429866302,0.2809613752690118,0.987607434554227,0.9455290659276742,0.9449125927333366,0.6902870268362801,0.953721316376375,0.4864975138793824,0.8031505424333124,0.19962015285852927,0.6739627913238514,0.11787828095192115,0.9668470239056579,0.7355036565067349,0.9609191798948615,0.8530391845386927,0.9784686561934517,0.9573755129509922,0.627492296576297,0.17535020931169984,0.7861558752177892,0.2810776005828478,0.5851093061627779,0.10329568120237223,0.9898709367854441,0.8341899446436503,0.8683543074348908,0.14788460707311488,0.8736840411516309,0.47800493076844713,0.5645077140940598,0.8399448275101998,0.4141465090894907,0.9815992442318368,0.9227317233612118,0.9440012844995747,0.6271423543593037,0.8846719834894792,0.4083894396618576,0.8709562827209888,0.16197150506234226,0.8978204310906442,0.48020347400858143,0.7564484434056571,0.23404382657461256,0.9192644925575798,0.3204742394453449,0.758856755701508,0.17602165224134927,0.9642420860956562,0.8594936753296999,0.8746235328652038,0.4744255093578671,0.8864683607330666,0.3731869374024874,0.6296723334247327,0.08883110212450213,0.8998077826707085,0.6647653852210442,0.9692735841793421,0.9435765658693358,0.6107396767862603,0.10404421873296091,0.7396816105626812,0.18784215464352938,0.5753160502776196,0.09641393806016163,0.9831537391745377,0.7026448331312084,0.8413969737882777,0.4337025812461521
23,3.2370887542729916,0.5695262229509825,0.8886930319194586,0.5158098704175552,0.7335916539537315,0.06835354613797937,0.9861186614087967,0.9457638465479066,0.7709999238580773,0.33213946511319326,0.9669213314309608,0.6898961807143981,0.8078067434879646,0.11600467642897515,0.9399769605090836,0.6133958878789227,0.8824989967083867,0.19129642763332888,0.899449655116887,0.2815754902966776,0.9393408681681689,0.5314499830537873,0.940920868170906,0.6442493683489285,0.8744123719391896,0.5158404542976542,0.9546935501226808,0.5796718283749338,0.8472774867843832,0.28443954345157746,0.98657781053523,0.9418069055609757,0.9679584710993088,0.7402894629331723,0.9798035228525008,0.670487335668485,0.879785691409764,0.22692112116162103,0.6951337363175921,0.15268618255394165,0.9300372633081482,0.6193372147834887,0.9689057859359996,0.8484541304410018,0.9912449611882684,0.9772188842818259,0.682818717664925,0.1872846363309476,0.7813225312126437,0.3182119305284075,0.6896402763697878,0.15034092059970725,0.9920930451553902,0.7681781858323469,0.8843346318249321,0.1376261042461427,0.8837910573501171,0.4832862808747364,0.5176268912573601,0.8428109835563204,0.34594851969219503,0.9730150262292167,0.8952657829664585,0.9325494241957357,0.5995665787890943,0.8812142112191282,0.40044422935142393,0.8639440183557832,0.15148526270327878,0.9194003022499588,0.4603943682859345,0.8047532997570711,0.2865166555511099,0.9259904424006116,0.3654689232382936,0.7793680622253406,0.15984034780844744,0.9579151640770822,0.8326273458329745,0.8998307251134148,0.48180958517735667,0.9232872982872982,0.5056275530775234,0.6488591405852168,0.10156138731496026,0.9085624555581893,0.6213036300762942,0.9844374653186753,0.9625163611231148,0.6562288485510522,0.10939701413465208,0.7210391097053888,0.1901790091665055,0.648358196993349,0.11754763519014774,0.9812415678965881,0.6667804838920824,0.8554108285408116,0.4344358249143077
24,3.204282775617902,0.656356363817048,0.9148193744838987,0.5865426405155691,0.6724191358799305,0.04510240759799712,0.9913891956122775,0.9591623010413254,0.7975123878310069,0.399108319547347,0.9587033795742191,0.6709496637542753,0.8408306131501427,0.1769085606722996,0.9093919615578898,0.46607479510579347,0.8383865977777797,0.1681840109037422,0.8830962225322782,0.28203398125572665,0.8997109690650344,0.533212862827128,0.9627245021361446,0.7534259852872327,0.8153007996478647,0.36631508251934175,0.9391120839832522,0.512505570352195,0.8308937551737088,0.3696314439643948,0.990799799511412,0.9606767156610732,0.9628423123207229,0.7606396937524232,0.9576699288766553,0.47541885238522275,0.8477220006486289,0.21333018765902195,0.6920916692817474,0.1676218216919475,0.9047213629169354,0.5590046731672514,0.9631009030272111,0.8588173974477178,0.9871339219368944,0.9702137353795064,0.6421273675617837,0.20644927864077162,0.798764047675559,0.3246184054068237,0.6726532238122092,0.18213660181077124,0.9935662318812847,0.8703727845018345,0.8890394425248952,0.2100054955116533,0.8724638218659765,0.483276417346681,0.5739733174331072,0.8696520079853468,0.4063841902270529,0.9835325119492222,0.9067312027724869,0.9290919795072211,0.5751446263599218,0.850276167565911,0.3039344819666942,0.8402991914021325,0.15066107379221522,0.885542924526983,0.4817476457346157,0.7487461269128847,0.21647251775250925,0.9067318759521803,0.33862599861518755,0.7456800560805116,0.16639219149329998,0.9649728721030183,0.8540242687480978,0.888053537575369,0.5025291467937913,0.887785935580053,0.37891645071321584,0.6201786203924948,0.08068665466160613,0.8995950857233151,0.6305660380348329,0.9780622990799246,0.9520606507369656,0.6013416551898959,0.1211209344275101,0.7259201292282107,0.16679065909007215,0.6238188843996031,0.13481577634128805,0.9804261151509175,0.7248824832567173,0.8384056829634312,0.42592036797463584
25,3.166027512948044,0.6588407741422574,0.9065544912168536,0.563892196752938,0.7354086789505943,0.08092235786844564,0.9806998586818059,0.9385208354319542,0.8899266048588484,0.5408917344801516,0.9827088130625915,0.7597357510959888,0.8040395923356014,0.15254447896704665,0.9563515523030639,0.6499478699489984,0.9048269647789089,0.16973376910680044,0.9354121743786783,0.2768330842840165,0.9500023712656469,0.6646213675712357,0.9611315042632912,0.6647128725271052,0.8586068420637103,0.3987159082390771,0.9292739683133648,0.4141608073275948,0.8868058317564772,0.3886810470679706,0.9913275419197647,0.961034362733718,0.9654402456915013,0.7459192865684265,0.9707884879176165,0.5696036491997708,0.8573068871914709,0.25546634706303256,0.7599563154460288,0.2343966392202088,0.9695933019910853,0.7448461377091002,0.9624690301919484,0.8652983632132872,0.9874731631000648,0.9722096077057891,0.695231865699357,0.201059090551591,0.8442060845698593,0.3806754872961806,0.7130669867829236,0.21661085013243433,0.9927139858673661,0.8518327276830857,0.880229776023987,0.23645778229331205,0.8989464044674967,0.5147897930384912,0.5825445330550794,0.8446872370068971,0.37801137140285107,0.9729706252925231,0.8959883343855448,0.9453820076682803,0.630635249797785,0.8899272152387168,0.414999975530708,0.8871322437498907,0.15394745135831772,0.9222405361651442,0.547629771333313,0.7881444492468721,0.2297827581254457,0.8721322324757406,0.23390583525942102,0.8031700889453783,0.18895177135896857,0.9621403021867702,0.8363354235756836,0.8897459314928314,0.47356402808057746,0.9029631603161016,0.4180976066266729,0.676288142896314,0.10845069137083542,0.8892952932223901,0.6554405441866522,0.9785269529599042,0.9538994601930642,0.6487946450737867,0.10600816784464015,0.7557442785407227,0.213879252602164,0.6485071785920387,0.1380536281913393,0.9747706098888824,0.6884757864912663,0.8553980595241676,0.43505563724817103
26,3.128736063257152,0.6852997441057365,0.8875304501328997,0.5477858867001476,0.6862682151039003,0.0927827845874587,0.9725374292588992,0.9165012559888778,0.7601210438401427,0.36820959236973316,0.9584255587918974,0.6499105544973396,0.8372058943183678,0.1570259933058916,0.8913452003817857,0.5562733629201476,0.7985229781707047,0.15164705795404126,0.8502272715654585,0.2888141068709436,0.9241906177508068,0.631185737321258,0.9311766431396826,0.7138223039442169,0.7932664611411632,0.36245379236223296,0.894671670193759,0.48191295148911395,0.8089415399516321,0.4014802348586356,0.9933950755139668,0.970894455942581,0.9537574455127288,0.6972289432796661,0.9491358492730588,0.4307922512181335,0.8082879214371382,0.23845910233981094,0.6920112702408041,0.19368359819712072,0.902865052734497,0.5089425887200362,0.9609275339415354,0.8218993586715682,0.9783533556938401,0.9559583714531427,0.5412502344120578,0.17790298861917242,0.7664061781608503,0.3458866061379117,0.67499854409476,0.2006324105914853,0.986476321435702,0.8425865524355253,0.8797572804230179,0.1976785707149029,0.8548908532079651,0.47786486716633686,0.5924573302526646,0.8276726068986124,0.3586864997683754,0.9674610337490303,0.8771474181542198,0.9113100870795057,0.5455138715478248,0.8091220186581233,0.3478529329860587,0.809877589289354,0.16197788000850946,0.9077637836885679,0.5225645554244628,0.7175584126154679,0.18644512314479422,0.8389009312825315,0.2746253859968103,0.7157232155808736,0.1425062763929451,0.9632424455770627,0.8517226705992214,0.8660682118516557,0.4676708094712997,0.8541062474886004,0.30313130394391424,0.6133360100278116,0.07268539858437018,0.9028823243223013,0.593546064549259,0.9706509498969264,0.941496725182935,0.5080687469456981,0.07649858147446607,0.6921448977173619,0.16967760423758516,0.6345819122056001,0.13749726586193475,0.9732909874861042,0.6941437626855383,0.8149348638084838,0.4065994805270803
27,3.0880243397834706,0.6961317731236492,0.918852258703876,0.6175653891894665,0.8029729082252258,0.15718125081278983,0.9774843145249335,0.9455237919137233,0.888138280814063,0.591081804413302,0.9796462587675693,0.7576668228350918,0.9170960779493245,0.31958617240759074,0.9649450465600966,0.7379617878551643,0.9036001322266876,0.18814433583273615,0.9218289372411459,0.33491942695629107,0.9430205357460001,0.7414761777829864,0.968704177269406,0.7565013938413303,0.798591569846412,0.40694266921150124,0.9588769789605629,0.6827494439161942,0.8712004163032905,0.4748669605770101,0.9926300663511795,0.9619800366228957,0.9573036406470474,0.7505581637462827,0.9801829955072596,0.6424340698874703,0.8919129351940565,0.28988896895631594,0.7785142685721438,0.28280186270305224,0.9612111598543076,0.7026759335619588,0.9764774781429165,0.9094306200746812,0.9905475601633477,0.9782878926182073,0.6730562092536688,0.24643548795313414,0.8356477565363246,0.4187921112638689,0.7350646552622444,0.2858615276928769,0.9938583384138197,0.8913457750579203,0.904283046044365,0.2548561464550905,0.9068758519659732,0.5676857786718124,0.5844823731087426,0.8681171767922871,0.40742776070380793,0.9653223701773633,0.8923129156807028,0.9326346020044114,0.6323493052354944,0.8903205748695233,0.4531992634649961,0.8773286861522157,0.15367932571738224,0.912797846224392,0.5606676164726926,0.712493358217846,0.2079023814879829,0.8977919170079701,0.3863675409458944,0.7724524935570675,0.16124827143482467,0.9562063430311207,0.7930148997793495,0.8594723834180891,0.4691603985447392,0.9285026380614615,0.4741340087448858,0.6810727016334366,0.09965877230727516,0.9024691454281591,0.6507873544106397,0.9821106818639953,0.9619719459692422,0.621148639643336,0.10684803160907066,0.7508862876324197,0.2119629650469607,0.6763692172673442,0.17096285364742117,0.9813894965929438,0.7186304260326731,0.850994029451336,0.4480150545913702
28,3.054608009862046,0.6955355146455988,0.8898734560196586,0.6109765995978861,0.7177810319204432,0.11962963073860414,0.982180832277544,0.9480015185055009,0.8552926238817085,0.5054540886890132,0.9824270190033222,0.7695091822311154,0.8949299168240742,0.28018290118969935,0.9607350146483179,0.708459639891516,0.856883559434803,0.21436936754598054,0.9129728464254939,0.36400500168979844,0.9172786711388281,0.6705870310774549,0.9569800818465504,0.7870691475488014,0.8241615932598502,0.41464098796902504,0.9503663942904728,0.5977337989192409,0.8934764082385553,0.5025011881920817,0.9928320215642864,0.9691286426433469,0.9295161803523351,0.7289000177543545,0.9713400993515972,0.6046568840560346,0.803372509885288,0.2535111832249809,0.7458838801028684,0.2702056379695351,0.9641232452987007,0.7205174058484609,0.9580815238147589,0.878997430106687,0.9838833649563151,0.97010706885975,0.6442509937232724,0.2187157103117676,0.8259159664593767,0.4043922057523882,0.7184824008785213,0.26781039051261424,0.9862678551746922,0.8507854545205371,0.8780146345334422,0.2540649975739092,0.8887890416779657,0.5512930782562995,0.5862711485428933,0.8324529777133387,0.391421593064131,0.9673831937029063,0.8959730378873572,0.9478574023273584,0.6478822645477585,0.8913474110806586,0.406937069524411,0.8372547563724034,0.16174765935809335,0.8923304422467715,0.5019575339917611,0.7290760717606105,0.19421099723080434,0.9075390782728594,0.32831175681064984,0.7786772002942054,0.18501169437100445,0.9555380686446213,0.8252240989788839,0.8265386746440134,0.45308381763942873,0.908126088273147,0.4433821898752012,0.6273167769987074,0.08152792530760661,0.8683685541181705,0.6278262034416486,0.9745161705619964,0.9546883216173476,0.6021117639295765,0.09920373513325659,0.7207303169197931,0.18575586969572339,0.6494506625911967,0.17504031344943916,0.9709271472973997,0.6938644123786056,0.8361864609341966,0.4343710786475322
29,3.009104278513442,0.7128021664058036,0.8647182836201233,0.5453165798173389,0.763574925770632,0.15610324231751826,0.9717555380837134,0.9324985841250529,0.7696930502093468,0.37973659886416145,0.9804728739625117,0.7601242838557104,0.8996436567311081,0.21116519236371553,0.9434670445037708,0.6089658842237456,0.860569642611972,0.23131866300540735,0.9194475120778581,0.3827023885592042,0.914081082842849,0.6440315533477275,0.9414093965166627,0.718589152252863,0.8399711608498109,0.5331667929246615,0.9477846014547197,0.6605795392765101,0.8797554095303467,0.5294815222674483,0.9949539193035103,0.9765525783872937,0.9505601851361076,0.749999523242089,0.9723285250462589,0.601925411466238,0.8347988249059972,0.28182060861372843,0.7959398622545577,0.32688280927271524,0.9444486844475631,0.647618943399224,0.9703020110978843,0.9018876313533413,0.9794529374311662,0.9582752047399727,0.6649705560070158,0.23594023884158807,0.8545101325246507,0.44731464652647984,0.7394293037494959,0.30024573418973166,0.9923592262901091,0.8742752879698474,0.8937707944789289,0.2644488489953781,0.8920062644977286,0.5504062016369887,0.6081091153014831,0.7992429472310126,0.3506737756313017,0.9625519897875631,0.8949678191299616,0.9400003188474122,0.625456445728748,0.8738032187577862,0.34385802955351674,0.8599669077610255,0.17235796296054387,0.8875106248829167,0.5126055427075097,0.7471011344472513,0.2631053093676498,0.9017927768459187,0.36478741239750456,0.7660340036028022,0.19941191030798827,0.9575367866725576,0.8156983852736727,0.8565351855013522,0.459301600860597,0.8933164741988272,0.4431848554189498,0.6861114810607545,0.10823533763778508,0.8800084621366168,0.6522862958357039,0.9672066650757583,0.9328535207412422,0.6136265637372372,0.10095411102282738,0.749138415790428,0.21628022121040277,0.662473707525118,0.16499518032712068,0.9753126796696325,0.6860134606693244,0.8410142286069459,0.43721195667275525
