epoch,train_loss,train_accuracy,train_1st degree av block_rocauc,train_1st degree av block_prauc,train_anterior myocardial infarction_rocauc,train_anterior myocardial infarction_prauc,train_atrial fibrillation_rocauc,train_atrial fibrillation_prauc,train_complete right bundle branch block_rocauc,train_complete right bundle branch block_prauc,train_left anterior fascicular block_rocauc,train_left anterior fascicular block_prauc,train_left atrial enlargement_rocauc,train_left atrial enlargement_prauc,train_left axis deviation_rocauc,train_left axis deviation_prauc,train_left bundle branch block_rocauc,train_left bundle branch block_prauc,train_myocardial infarction_rocauc,train_myocardial infarction_prauc,train_myocardial ischemia_rocauc,train_myocardial ischemia_prauc,train_nonspecific intraventricular conduction disorder_rocauc,train_nonspecific intraventricular conduction disorder_prauc,train_nonspecific st t abnormality_rocauc,train_nonspecific st t abnormality_prauc,train_normal ecg_rocauc,train_normal ecg_prauc,train_premature atrial contraction_rocauc,train_premature atrial contraction_prauc,train_prolonged pr interval_rocauc,train_prolonged pr interval_prauc,train_qwave abnormal_rocauc,train_qwave abnormal_prauc,train_right axis deviation_rocauc,train_right axis deviation_prauc,train_s t changes_rocauc,train_s t changes_prauc,train_sinus arrhythmia_rocauc,train_sinus arrhythmia_prauc,train_sinus bradycardia_rocauc,train_sinus bradycardia_prauc,train_sinus tachycardia_rocauc,train_sinus tachycardia_prauc,train_st depression_rocauc,train_st depression_prauc,train_mean_rocaucs,train_mean_praucs,valid_accuracy,valid_atrial fibrillation_rocauc,valid_atrial fibrillation_prauc,valid_left anterior fascicular block_rocauc,valid_left anterior fascicular block_prauc,valid_left axis deviation_rocauc,valid_left axis deviation_prauc,valid_myocardial infarction_rocauc,valid_myocardial infarction_prauc,valid_myocardial ischemia_rocauc,valid_myocardial ischemia_prauc,valid_normal ecg_rocauc,valid_normal ecg_prauc,valid_mean_rocaucs,valid_mean_praucs
0,5.229398759100585,0.4343943210441951,0.44321870026278526,0.03341096929869472,0.6600022397334572,0.02594907143637342,0.7195178668011817,0.21714590369376535,0.9211016249955161,0.17066598412460832,0.948652803216657,0.5264971588319366,0.6265487789066922,0.025582220135387388,0.833121497252787,0.569720858832089,0.9403785335581667,0.23353800970653596,0.6798261724053943,0.4051294742055278,0.8083282617035847,0.32926190443979325,0.42245210314874626,0.031140027104115148,0.4383319794223785,0.020189209882431086,0.9081948749629493,0.7560347013310754,0.6571559293785386,0.040398334969660846,0.4624878889855522,0.018662337877999903,0.4483614628787286,0.025504904031433764,0.4466728197058646,0.013109855028098296,0.7213254245359257,0.07710254906901537,0.5419460960574779,0.038389273569919995,0.7014731195750897,0.09216057919392248,0.6859947912333942,0.16997485071974602,0.685648932006414,0.09512380970155583,0.6682155409421492,0.1779405448719857,0.48603479853479853,0.755638701655366,0.22064261146227718,0.9546656799235383,0.5217282020210663,0.8246280390806325,0.52133133800052,0.6768651941693558,0.40860870406642275,0.804658489468716,0.34385519085173377,0.9071114329654933,0.7590299873435565,0.8205945895438503,0.4625326722909295
1,4.799397931918962,0.47057476528509273,0.7088881648346099,0.07347904231946095,0.6651367920868607,0.028399339642878413,0.7790678424462857,0.258728538452879,0.952781094501868,0.33051456752041264,0.9356567422716972,0.39990487934294616,0.5614221159714514,0.02545564580893141,0.8181493520253271,0.607478473392783,0.9598510883281804,0.3176132745013102,0.6872131063909738,0.4995356172742566,0.8259935777865329,0.42315101703127644,0.47687879078071416,0.038407879469068124,0.5534720116835556,0.027700714884118724,0.893888439714375,0.7028105702191098,0.7057842154763786,0.04786092501007553,0.5885424745359599,0.02599231285904579,0.5139734198930817,0.030875348223530042,0.5499016522423289,0.016781457669400212,0.6954806540920727,0.07712583067342997,0.5978561810672194,0.05072391285206489,0.8167823194476975,0.18900543231436215,0.8520437138139085,0.3626503157297749,0.6754449726344117,0.10270239426719122,0.7188276691829769,0.21076806770265027,0.49885531135531136,0.8022024525293723,0.2551567165259464,0.931154340121064,0.34193821697374,0.8092716024194525,0.5630647079145743,0.6867185935239789,0.47892293452622037,0.8254492636722573,0.46079720414996356,0.8859823581749449,0.6773843133353459,0.8234631017401783,0.4628773489042984
2,4.587022503280756,0.47843676055262957,0.6244014927475003,0.09018667106731923,0.6283751538901828,0.024031824967244556,0.8172357847529509,0.40231807434923117,0.964880162345815,0.3473628356566094,0.8397427416434227,0.24269025233409214,0.43714760951576837,0.0229745543230862,0.6052248784048678,0.41094137873804193,0.962406985455807,0.30665106849285684,0.8097706904172876,0.630320147360472,0.8917794273003343,0.4653706260479248,0.40049353395019355,0.030256800170979956,0.509608034223949,0.021128709703378153,0.9152483155862451,0.7478372296157766,0.6037560858625781,0.04585373130594578,0.6013518627171084,0.04818858956151565,0.49628300861563723,0.03400325889680525,0.39633389820250564,0.020174927870293048,0.7828326031077889,0.10361794833823113,0.6481487645262098,0.08015821991138247,0.850843299187959,0.30893169974538237,0.7298471431369327,0.24767917979406381,0.7674121462964533,0.13035291560674397,0.6946874373585227,0.2164104838116989,0.51007326007326,0.8300679090981127,0.4365750807974441,0.8500823853077045,0.2414589152041864,0.6087181288666832,0.3835708415072448,0.7997938689217758,0.6109797669420305,0.8936137194560615,0.4942014658606004,0.9150305269599455,0.7685391527394136,0.8162177564350471,0.4892208705084866
3,4.440960189002442,0.5078238302419663,0.717952294787075,0.13604247957158713,0.6139881601541171,0.029406350214201293,0.9273740363721004,0.5915300850760273,0.9643482338230698,0.3620173004219776,0.8926090375801063,0.42013897821613577,0.6490761558724105,0.03564222741131627,0.8348929716531299,0.6401714430643114,0.9581526819792126,0.4706950735557046,0.7178808095343413,0.6015681402137103,0.8071633687191692,0.41969790913021604,0.45278755689728717,0.03812877193141253,0.661898037159894,0.051457574226047735,0.9185323375427258,0.757238650253873,0.7132858700807339,0.09066977581700922,0.752236182203609,0.05766409047903525,0.567344575660291,0.04250544583325033,0.5568241996005568,0.021684009626077697,0.7086801542597843,0.07290570222006128,0.6882176531797544,0.09213698347272607,0.8952670054242782,0.37674194762646135,0.9196163578328335,0.5731775586816801,0.7390096390875579,0.1729523548368271,0.7571426054274562,0.2751896750854386,0.5423534798534798,0.9235654758121185,0.5732780884848504,0.9016520203897415,0.4088858709788292,0.8283020112504851,0.6079167831903913,0.7116201179481474,0.5905698588040029,0.8252382580639506,0.43693746277144146,0.9163663959869076,0.7525578312735056,0.851124046575225,0.5616909825838369
4,4.341062606468372,0.4361499122204412,0.7108321509327679,0.15920026460357847,0.5030552965304625,0.019572001808627337,0.8337802229755281,0.41319987575289546,0.9783526101906845,0.46204303725431567,0.8792675264947246,0.45103775914072947,0.4617282193825439,0.02065199664671153,0.701574474562596,0.5423395793366781,0.953636600712071,0.29378775535336143,0.5968669287720892,0.3945946794301356,0.7510869299936893,0.39420727809457773,0.40088880979279573,0.029594121947392197,0.4599265739984766,0.02303266757803147,0.9199954117411071,0.7836996712434199,0.6081980621702515,0.10290761143575924,0.7160876608900968,0.08835554216498452,0.40642447495865397,0.01986540102604657,0.39368834352115234,0.012870402779686839,0.6415489934705497,0.0927012588079261,0.6666032917950555,0.104496562026931,0.8571600389590913,0.37922093347128766,0.8542080834136286,0.35264588551760373,0.6129716573360932,0.10733292421222974,0.6776310164815503,0.23851623680149592,0.4961080586080586,0.8384574995624525,0.41066826071241547,0.8812423671215419,0.40320159041494813,0.6958265516971605,0.5063975342030101,0.5989529320129076,0.39819209191412813,0.756939074322488,0.37925211692843946,0.9150134165636689,0.7673096153704129,0.7810719735467032,0.47750353492389236
5,4.2539760727216684,0.5264483627204031,0.6471530717172442,0.11965208104651205,0.5207929241989293,0.019014465612936578,0.8367318170450313,0.4554059595781167,0.985295609796094,0.6924620672476401,0.7312750493326307,0.33191807382895594,0.48500077474520364,0.020490937215500046,0.5405917384314445,0.3186822197032352,0.9525378854012194,0.31433038276891656,0.6921490933784008,0.531249160758112,0.8455193523189841,0.4752213738025957,0.43927920169347484,0.03283828670425619,0.5271385006422807,0.03845501563857563,0.9290758464156732,0.7983035642689045,0.7274679060345498,0.14775605765832384,0.7468189151378501,0.10319163834138367,0.49175190951089476,0.02862953693285112,0.3603855232100708,0.011707521066104586,0.7211180010879521,0.09294683869277723,0.6924198946665927,0.12668165402700052,0.887339011497313,0.419764676526639,0.9090670006425805,0.5678909320007864,0.7037640599551298,0.1379103287890327,0.6987578675845246,0.26293194419132526,0.5240384615384616,0.847849313028812,0.44677214848449387,0.7405692468008284,0.29964821610707315,0.5503375605745202,0.3052922488881288,0.6890419494825859,0.5212269336539436,0.8400501503634148,0.45813357992739234,0.9224472546872422,0.7791787462353151,0.7650492458229006,0.4683753122160578
6,4.161096339989742,0.5225555301122051,0.6855390750173375,0.19254140748481807,0.5249459463020244,0.019883608238567992,0.9082673817372592,0.5096966028790384,0.9706557889504405,0.5001728663575226,0.8037792413260114,0.3594876193335158,0.4768828680118774,0.02081752055194095,0.5657067739763684,0.36480716577185035,0.9673384414442091,0.593293745923398,0.6600178646029209,0.40171135780342787,0.7479624703272534,0.38322390355744007,0.4191219753278228,0.03229519386069999,0.4441939462044526,0.028499660999499424,0.9266766090136284,0.8087457690948424,0.6940680089281648,0.14528703343137211,0.7458560286063473,0.11779030255777133,0.39135897381140505,0.019053369989398453,0.45100844277673546,0.03903448022172258,0.5856346879437184,0.07328509614890087,0.7015581477054766,0.22739233081279506,0.8386395155052802,0.38860430201551005,0.8466643948182205,0.4587415835744309,0.5453123949199286,0.08589753454675376,0.6773267716934948,0.26228465705250986,0.5173992673992674,0.8933733990336515,0.49049806837667215,0.807686723437583,0.3568450125153932,0.5682378586341414,0.3343422954096157,0.6543696450428397,0.39189858660330457,0.7507518170739191,0.35163217411235553,0.9179093511335135,0.78050045581896,0.7653881323926081,0.45095276547271684
7,4.091567183767473,0.5411800625906419,0.7209234913764471,0.2258992593461921,0.5640545470248873,0.02252726254558767,0.8602603798373298,0.4404537279557974,0.992832288778768,0.7544047445244785,0.9356241700591859,0.6798853083047153,0.5766523417859616,0.025942610472617034,0.7476765073979603,0.5695461013842588,0.9628436869451448,0.5935562238322416,0.6356266935677787,0.41906968730450206,0.7543632480072788,0.35440062015996887,0.5165762214375116,0.04369027682589224,0.4450093724400304,0.02467655370481598,0.9313436149211656,0.8177805522803574,0.713870675587686,0.18610280088295153,0.7497165666688397,0.11996856888790529,0.4543826804573809,0.02240211777226085,0.6848589844459239,0.062203747303507764,0.6101183886491495,0.07805577290696933,0.718872347543089,0.2651860534489061,0.8665425744342758,0.4419211955745233,0.8222436342937544,0.3954692970230409,0.5271691167850091,0.07734780414674727,0.7177982514747526,0.30093137666310166,0.5212912087912088,0.857642538140637,0.42004762588501343,0.929647261455955,0.6495162000074656,0.7409185390629913,0.5302125107764801,0.6318183209079782,0.40771219078176385,0.7622904921808101,0.33759996014496013,0.9217687519878255,0.7785419905505631,0.8073476506226994,0.520605079691041
8,4.036966100465923,0.5301122051751774,0.6464197176586874,0.20210762992189005,0.6297859663864316,0.032377143693666,0.832560709486241,0.45576302151751935,0.9828073834548707,0.6139800044130829,0.8640892532350168,0.48321585211583135,0.4273560950311953,0.02291913008538597,0.5738938140456067,0.4291943757067763,0.9617161307717639,0.6005587816943041,0.7727779908589723,0.6355072013375354,0.8062708781015228,0.3953666490036979,0.4189391539724134,0.03841739412023557,0.3742007419933903,0.018507854211951696,0.9363777570969697,0.8201949413235172,0.7015763623355777,0.25570245504926603,0.6604212047846094,0.13045334904022748,0.4566742121710409,0.029863878915183578,0.522967984022272,0.07024327970761439,0.6055906137196664,0.08768112297198832,0.7397039368066798,0.3116416438662949,0.8818488043502072,0.5076610752230933,0.8601227223927838,0.4686895760314109,0.5401032577173381,0.09037023389691884,0.6907365768360572,0.30456439062942686,0.5322802197802198,0.8338834965827766,0.41577735829101653,0.871452370838422,0.46257819792612564,0.5725481413075659,0.39231171467611203,0.7479751307444086,0.5952238428411173,0.8040646343494919,0.36230777092751093,0.923240875126315,0.7820276943842441,0.7921941081581633,0.501704429841021
9,3.978295544432953,0.5050759484008854,0.7549752160870248,0.22898775573452784,0.507077667515228,0.01799410389406972,0.8465408973001617,0.4613737561139185,0.9676469081014046,0.5159987327088168,0.7842141710279572,0.3113387605861628,0.44381026015627717,0.019458306418013875,0.5812599089156302,0.39583370873739643,0.9654020151033299,0.6914966438348904,0.6579280357926637,0.4820338765699289,0.7108279391982937,0.361776077031571,0.4401732182116857,0.03637866927696539,0.43778824787041326,0.021847014864016835,0.9463033229785021,0.851711854139897,0.7206361317359814,0.24366206526006703,0.8021987532680069,0.13914877181852606,0.4570767577110072,0.023534183597072517,0.4726744537916843,0.03415478058018126,0.637969961400295,0.09118766532269384,0.7367878521970236,0.33381947363717285,0.8669107648080775,0.442454237754909,0.797769243517044,0.38445201836273424,0.6151339394877928,0.11411535331688792,0.6886866211897947,0.28194353679820083,0.5476190476190477,0.8409147309366475,0.4127341529834554,0.7953608692189242,0.2994511621943264,0.5817975004717104,0.3612637300859175,0.641318710359408,0.4567086848095461,0.7175108352256621,0.3341067966651775,0.934812912914122,0.827014782672036,0.7519525931877457,0.4485465515684098
10,3.9311605907289064,0.6101060987710861,0.6144244897742279,0.21198964239793805,0.5864767675229865,0.026813072222627108,0.841637993213173,0.5390538422562057,0.976285878271386,0.48636823259153783,0.7179590587436495,0.3626911453986999,0.490248013331942,0.033635919280190045,0.6428172455920378,0.4770365739233035,0.9563459842690223,0.7796936125473068,0.7742506307669959,0.6048613800364122,0.8180747654427736,0.478699511321121,0.4774097595798725,0.04895884198052618,0.49284508817758566,0.02441929938150588,0.9433051297383652,0.8371638112508399,0.7450177652257094,0.25548827656959394,0.7463577037291808,0.17855009148655557,0.45681432601799055,0.025810682343523284,0.5531580978030624,0.08045138291458417,0.7153067555566369,0.13137168237460703,0.7470897149475602,0.31141164191485193,0.8526751937422804,0.48526940998174833,0.768941386310088,0.4785562532714222,0.67998791023582,0.1603127816397201,0.7089740753632886,0.3190275948674919,0.5863095238095238,0.8345565794503359,0.5249773584947289,0.7226635095311422,0.3232303816338923,0.6430489827162236,0.4509367043795937,0.7538953488372093,0.5718720471072576,0.8152005868410824,0.4560621375682954,0.9304038405794184,0.7924571405900959,0.7832948079925686,0.519922628295644
11,3.8939266218846833,0.641783069994657,0.8551101791403283,0.40548431090879167,0.657740731089989,0.03137856161412119,0.9657400722404772,0.7428169904409105,0.9958580806502032,0.804337038866702,0.9140857945361625,0.6201630192965674,0.6299358384482329,0.036205857445498715,0.7868690440797185,0.6592967216565103,0.9857910683937298,0.8015324286521431,0.7633145261960776,0.6120468221926467,0.8545128594707245,0.5443725929073387,0.5610193897784781,0.07818786056582652,0.5221703204012595,0.039054163296989734,0.9478022167144708,0.8633399331524035,0.9091927004482838,0.41173042755117806,0.9298835019696088,0.2785519856569804,0.5703416594889463,0.05457660068256731,0.7826476729407491,0.10401200586307736,0.7061908990898395,0.11992820859588674,0.821829701465691,0.4095124989375712,0.9467813252494343,0.6084334977172957,0.956659387144591,0.7287305611699716,0.7362714698313747,0.2113432450712642,0.8090794744894715,0.4165925151019202,0.5943223443223443,0.9499437065881142,0.6835016421427373,0.8975908312536505,0.5502314541783567,0.7714083662252275,0.6096787177055359,0.7334268944030267,0.5688913430903583,0.8546703256558855,0.503877195472944,0.9304563040738848,0.8176225088878899,0.8562494046999648,0.6223004769129704
12,3.85330407842044,0.41508281810548814,0.6511508975615978,0.23494779816414063,0.46519410291355656,0.01789885784086291,0.9201877060305694,0.5777477564242216,0.9909779695499105,0.6593323944553906,0.7605051261778675,0.46939710496939757,0.3993362489050795,0.015857178479599603,0.5846825986177664,0.44447146293777007,0.9285181984737548,0.5834858657492439,0.5730158019147445,0.4166163054225269,0.6725083060446725,0.29037743419109463,0.46231318570564695,0.04113881837915945,0.35957645057244086,0.014746280309570209,0.945383250582739,0.8596905204815611,0.7624875737203277,0.25259159199338416,0.6166458353471524,0.11048313129243663,0.37922115208936913,0.018884216718227053,0.5032140803728136,0.02148160521781818,0.5493972815102026,0.06965072136388295,0.7985284253950004,0.36742374922613125,0.8831056647394949,0.3941549967952198,0.8780796865307663,0.5250330350359442,0.4911641912110094,0.06907355564608887,0.6625088060893856,0.293385653686076,0.46130952380952384,0.9103989996926284,0.5477487192491227,0.7620715632135082,0.400319110771696,0.5774066818738945,0.4024329918660471,0.5581937799043062,0.38218085418913483,0.6680174532616733,0.2622307054520595,0.9319262884128396,0.828241890735843,0.734669127726475,0.4705257120439839
13,3.8042978696464247,0.49736661323563086,0.6194101681134467,0.18936906082581853,0.5255025859406222,0.028286123678352714,0.7877161298036361,0.46095188361106487,0.8657679910217845,0.22293982537046644,0.6646515688305417,0.20102067068083593,0.4710564678575607,0.02195354793979793,0.6193067043675724,0.39361891144222383,0.918285327846571,0.6418980629739297,0.6568244773989287,0.48288846368556665,0.7713582115012294,0.4504513179438299,0.47757090019762116,0.04330331647879335,0.433186889670743,0.023893477362932628,0.9488265155694096,0.8647248228425163,0.75572128022165,0.28252952595750763,0.6803497713425486,0.1431634580549091,0.47757419152767994,0.028025587224825482,0.5116095745324699,0.02938480771266102,0.6477668306705155,0.10560394819393838,0.7425544612043243,0.3475780413798721,0.8622390861464371,0.4874421970962309,0.8859676731577558,0.562310814444417,0.6237573013337648,0.13563567974765592,0.6794092776480369,0.27940788839309755,0.5457875457875457,0.7981517649486655,0.45519788136424016,0.6647855493017576,0.16600446282372555,0.6212225199920844,0.35197856991027765,0.6336474908200735,0.454165983377037,0.7673759611422359,0.39460010028467546,0.9299078907108665,0.827092661393479,0.7358485294859473,0.44150660985890583
14,3.7635591726122573,0.474696588046714,0.7644461283688452,0.26276101246643935,0.5390767613746986,0.03165778911239584,0.919522368123633,0.6420808236315242,0.9829685506228892,0.6081199527314108,0.8913442619262568,0.5388428073838964,0.4705821340593803,0.02682954429819502,0.7090172104918153,0.5379874555869875,0.966484928715554,0.755099047309484,0.6805941201410878,0.5440889481136498,0.8170208930484647,0.44150081591184387,0.4657706355419448,0.052719332010033024,0.41126927270002234,0.017840558118288358,0.9583844554624347,0.8884841174126565,0.8103255685274154,0.3581703870510971,0.7920105145710583,0.16476616232715474,0.48404374968857,0.0340486393530782,0.6719655934152394,0.1363055168692075,0.6629092637553812,0.11991943973731051,0.7832029693732948,0.4212125631102188,0.9008236679849623,0.5827174346856895,0.8398401703853584,0.47054266958723323,0.6633897359138916,0.1584555208882768,0.7356814979178271,0.3542795698952759,0.5753205128205128,0.8976617989336905,0.5975066247607642,0.8842241676843838,0.4794064080015451,0.6913940078204218,0.4788458923869847,0.6580855680427282,0.49856573162487283,0.7960461289822924,0.3878539375012715,0.9379936852572801,0.8400594412076325,0.8109008927867994,0.5470396725805119
15,3.6909634217479996,0.4615678192504389,0.6328076632842039,0.17453265240932828,0.4601514089094547,0.015742617440979274,0.8429146354707039,0.492711394032944,0.9698794192857401,0.4554907441158424,0.791510514528466,0.3959877214342179,0.4439106608102254,0.020112219892359867,0.6095771323529837,0.4225373025941709,0.9480574960827258,0.6845555895060025,0.5118759792791758,0.2806555921489332,0.626314669090202,0.3083076107066015,0.5006800552616053,0.04706476557852608,0.42062426130869235,0.02739272601764483,0.9310553096196056,0.8268391214529952,0.7278279666989103,0.1600417175136327,0.6992901615476321,0.11409779458636729,0.40252726940535255,0.01923479962401524,0.5087480330448466,0.08638502114280032,0.582839902466662,0.08140230783043614,0.7469253101082078,0.24903226400291104,0.8856240194930262,0.4806847447592183,0.8587705031320068,0.5185431434499844,0.5743023198587776,0.11005216668826966,0.6671006677745092,0.27142745531491735,0.434981684981685,0.8423366511471579,0.4950414449781454,0.7822248513248022,0.34133319099494286,0.6081999377188851,0.37568137835258414,0.504972738399911,0.26883070514492813,0.6215932969187921,0.25970970682954025,0.9086337549871774,0.7677784195519124,0.7113268717494544,0.41806247430867555
16,3.6908727810497677,0.5451492252499809,0.7318302232212842,0.3476053932368157,0.5847944056435428,0.0521571003560284,0.8402241004164563,0.5854431161922782,0.9263568533199411,0.47422485928642755,0.8480897488699205,0.5072668853052041,0.5414068108008968,0.038359724068759954,0.7343845972146578,0.5563816190892308,0.9563614544634825,0.6012855879064568,0.6407651854568508,0.5039326097681283,0.6793344420542251,0.3810795526129258,0.5244342750530551,0.08018002149638123,0.5156263794322333,0.04810756940474943,0.9524104282091395,0.8619698783626827,0.8228076157352204,0.3981191480261612,0.8178128763031751,0.17631579154224758,0.5263848254686874,0.043811403849662776,0.651620468437935,0.19752118648028144,0.6913572984030045,0.12435577357944584,0.7901202441529537,0.4436238662222717,0.9139053792866374,0.558652151096296,0.8506313140410714,0.551882036284223,0.702033177796576,0.2287348561777087,0.7383041865354977,0.3527731877429257,0.5826465201465202,0.8287661511589128,0.561961613811911,0.831204700525673,0.41632429093570794,0.7264140957809914,0.5084315601984338,0.6183459441415378,0.4574163816126608,0.6740080252271524,0.3253878122955613,0.9259950198681897,0.7880860651747309,0.7674556561170762,0.5096012873381676
17,3.645495995375302,0.5740783146324708,0.8031686674478482,0.3850715606504391,0.5763379479649898,0.03728589274296937,0.9148595640455942,0.5655470736385886,0.9920315774909167,0.6874563791542804,0.9606607844161104,0.7433440258943038,0.5206752615950897,0.04311066443135789,0.697216947220854,0.5533967532565329,0.9830473189047986,0.7703418637273136,0.6336092968102833,0.4151074297545074,0.7715876454453665,0.4133342184223825,0.5931099787645964,0.10615620640044399,0.4140926389903086,0.019706399459452635,0.946023398889057,0.8663965396342397,0.829729488934917,0.3334664189602343,0.7651178805406251,0.19322257268743545,0.3953462271291729,0.020007263710362284,0.5730837317678388,0.12149340267487323,0.6561390215035637,0.11943537135194714,0.8267199889724361,0.45117383804665456,0.9199773609259863,0.5610294740119729,0.8395474556498284,0.4275082391573493,0.5997504746881513,0.12667058955407673,0.736901484459015,0.361830098969169,0.5309065934065934,0.8859599093384372,0.5258429808779076,0.9455684503265545,0.6461262460344407,0.6770211832491414,0.4856855495000538,0.6099860910203627,0.37395856551726053,0.7671076742330589,0.38682924383290773,0.9202335971689338,0.7919566282266849,0.800979484222748,0.5350665356648758
18,3.5867932686941484,0.5029387069689337,0.789490352142802,0.3449871201325871,0.5599750847951375,0.02625906994926721,0.9268332586355529,0.6457414803988345,0.986594683789504,0.7064019760141719,0.8427767005255374,0.6141954364713861,0.5143014802376729,0.02554037488026588,0.73789851019556,0.5931898897782956,0.9733939175615438,0.7662542210484659,0.6183820791560866,0.40258882145770636,0.6630288134426662,0.3572265651205023,0.5717739564617303,0.0888092526572358,0.4222927541012552,0.027076001482462635,0.9581319137304346,0.8911424606429332,0.8658896278412973,0.3872858701886364,0.8503258452982289,0.20070209982967635,0.46152896121183645,0.023117214788956723,0.6724898626157478,0.1958953525162242,0.6388743867235089,0.12088737383642563,0.8272940610853072,0.43302877410205065,0.9417067014018198,0.6329991897766806,0.9055716182482377,0.546746282854493,0.6396278223299388,0.14625050217982444,0.744008290524155,0.3716511513685038,0.507554945054945,0.8999396576420156,0.5853743635066293,0.8206074443795465,0.5446967090798893,0.7121934457563704,0.5163367762422217,0.5936559752976522,0.3594921018293358,0.6646553916024445,0.30974353272283084,0.9280306537781768,0.8106388600739722,0.7698470947427011,0.5210470572424799
19,3.5571223086741544,0.6049919853446302,0.7156012772583186,0.2921065892128349,0.5534966923674862,0.03491174199439112,0.8876995217809177,0.5999249322724214,0.9605622146264969,0.45253151355944604,0.7804697517476923,0.42078852952765217,0.5192165270544188,0.028387243443440874,0.5878147050381939,0.38961114202369895,0.972374210743829,0.7714257755984275,0.6438820034111655,0.455578031561054,0.7453533734699077,0.4089098346840774,0.5716763512875512,0.09116699704567308,0.5107543531031707,0.02914243694699504,0.9606748070670156,0.8955908923215412,0.8206060541102516,0.42538826788918843,0.7565410717938689,0.2430551529320259,0.5036771283423855,0.03333162221175889,0.5837771591115415,0.13405297507719724,0.6939141595396537,0.1453489308296255,0.8061860262610675,0.509042429518489,0.9177326213301026,0.611147355486523,0.8227674913225432,0.5185609244313412,0.7010388384962621,0.21113776273287374,0.7279916517847199,0.3500518673318489,0.5478479853479854,0.8695281541072423,0.5608552955690783,0.7584625391599852,0.346355377398331,0.5816083561007113,0.32647284471031673,0.6123987426282408,0.40149890955656664,0.7300197854289231,0.3562040378981399,0.9290313603368936,0.8215457006157162,0.7468414896269994,0.4688220276246915
20,3.511787049816397,0.5509503091367072,0.650818845605057,0.2415036931301565,0.520333266482901,0.028939265332508773,0.8079909174101955,0.45786509683879995,0.933204792481257,0.5027414941838365,0.6978384559293769,0.41317222363401057,0.45761606157485146,0.02606260851332153,0.5786904639486696,0.44646240458499004,0.861412030949229,0.48997491469602716,0.6376927723792024,0.5245177369722094,0.8033631975169611,0.44506965645634206,0.5028591786700383,0.08810350337875356,0.42489096283257793,0.021216542059438275,0.9560309719228554,0.8699827295933258,0.8024918207614662,0.4384552680119246,0.6965004132544141,0.17841083657790577,0.4844118896268297,0.04411719783008042,0.555556270047812,0.16158618767167174,0.6889110573121328,0.14289432944400182,0.7976932051042828,0.5137626205526314,0.9044339557463816,0.6127172794419026,0.8749735533259926,0.5328810680790542,0.6242053208876444,0.17150672085656074,0.6937236092622786,0.3341792444472479,0.5670787545787546,0.8074713069040191,0.45233099982372243,0.692232384643976,0.3834226621711417,0.5755468389266172,0.388464261328526,0.6020308501168354,0.4583762921653379,0.7855458235794385,0.3883915118938703,0.9281179671238833,0.8011438949115834,0.731824195215795,0.4786882703823636
21,3.487470611034755,0.5143118845889627,0.7338780845376548,0.28630315910575527,0.5431192606830162,0.02741674771630766,0.9454085980388031,0.6386729371281858,0.9837789985600007,0.5578440209838492,0.800292923250297,0.5328222235016706,0.4704022034386038,0.0338640193057163,0.6385196387931157,0.5225995935805341,0.9514949732918143,0.6809539509915237,0.6261963420335785,0.48722571010040727,0.6688147326873414,0.3475066545611623,0.5799761394692555,0.12033365337634516,0.37452889715911386,0.019884087758025797,0.963769419226495,0.901495911602381,0.8251947342048922,0.32334087384758536,0.6940710917484745,0.18701791395195405,0.4540447937206218,0.027685102919099168,0.4738470616716092,0.0629501367596119,0.5815964045443722,0.1124587929147482,0.8691438340620602,0.5567045712841399,0.9345061362253831,0.639020670698228,0.8959694286273865,0.6001073113421763,0.5231422229860636,0.1035259376751487,0.7059861781345433,0.3531697264138434,0.5345695970695971,0.9253626854352007,0.5826977054009911,0.7739423485371423,0.4630730591816245,0.6298314268051168,0.4629925184505267,0.5872757872482475,0.40488781569737864,0.6616267889447089,0.30534882415159503,0.9238448972772326,0.7938502947485205,0.7503139890412749,0.5021417029384394
22,3.4326935352036885,0.5910235859858026,0.6793470823933911,0.23560871639887074,0.5214542311199984,0.029226452395716522,0.8675613656711639,0.5677653712301712,0.9375742419506096,0.4168216022677501,0.6999929230991889,0.4262508502622452,0.4801900813640575,0.023979957637988582,0.5858747553579448,0.4078421863767083,0.9327115051836201,0.6053484500968904,0.647021638162002,0.4747652646008761,0.7327779269243687,0.3609155213231595,0.5480934009526801,0.10638871619848883,0.4553659357828742,0.022175187743378427,0.969084255052122,0.9154175165858474,0.8328317046310166,0.4220253831439103,0.7554352509387209,0.176188508303911,0.47237858974997804,0.03680449061622379,0.6000635477818799,0.2524443343078925,0.6821716635412666,0.17215681285385365,0.7853195556026243,0.39085007792018467,0.8887146701536626,0.46901165129899164,0.8131773378041041,0.4530536298092175,0.6785423949534253,0.19458494319818978,0.7075310935532136,0.32543752838956663,0.5766941391941391,0.8624603486273201,0.5388815970832123,0.6732933049699994,0.3536991379654535,0.5698949044537134,0.34851233436305484,0.6246500500723267,0.41659607167163104,0.7148951839869538,0.295480425558292,0.9263426376984305,0.800556253919788,0.728589404968124,0.4589543034269053
23,3.4003768574872115,0.5194259980154187,0.6829720867111462,0.2960954903044893,0.6040487939840467,0.03354114526420632,0.7939489137928656,0.53541786868588,0.9661287594996387,0.5781007958531622,0.9027109147301451,0.5799259213720397,0.5206186577618401,0.03307907998123453,0.6826121871084948,0.5155823656960274,0.9764232026396572,0.7417814131490564,0.7395127346342796,0.6065757801768694,0.8206895763578247,0.5051765053243306,0.600966525610727,0.11464127340084848,0.4642815591852991,0.02200347288765383,0.9670730719686149,0.9019814142083915,0.8511264707222113,0.4773540994613405,0.6915125111556211,0.18965542805240396,0.5264567213122534,0.060796310243118504,0.6981310143436422,0.22823265235912105,0.6842571946478319,0.15845340327216073,0.8192012412733474,0.554652542969672,0.9254677787083173,0.6099741517660496,0.8545192207548913,0.49593962057491636,0.6794594339712582,0.20211680358856168,0.7478235714033615,0.38368534266325144,0.532967032967033,0.7987264540723256,0.5309545978492681,0.8783891639675038,0.48699257126946166,0.6670362626422226,0.44187925625102986,0.6892066318014911,0.528081571066524,0.7861046085144562,0.3940702887954412,0.9209926193802414,0.8003327290750465,0.7900759567297068,0.5303851690511285
24,3.348079698157305,0.6391115182047172,0.7309469102146124,0.3214055080753008,0.6169272613622557,0.07708344710310408,0.9025904978055832,0.577396429431193,0.9299232854529337,0.468066200290714,0.8235464608192381,0.5041672361102459,0.5388887307776229,0.036247488351422226,0.6981644217122593,0.5430187113044542,0.9705138093585836,0.6940830900324646,0.7139811903742047,0.597367846905288,0.7806163408620724,0.3857431199137965,0.6130470493771685,0.159958345878166,0.4637022404203671,0.01695740208096689,0.9726865391968722,0.9273581414636051,0.8009487514770861,0.320408365477164,0.714179684368043,0.20670145932543743,0.5229003684958582,0.06038742542813892,0.6667959057071959,0.2721564561191138,0.65311248138229,0.10853553092206106,0.8301123096862691,0.5735830772195262,0.9257955271188639,0.6412517933316777,0.9199166872453995,0.6357327996172865,0.6174861226667875,0.10612960150230191,0.7457628443582531,0.37426088526742857,0.5718864468864469,0.8834016719970533,0.5401749913393008,0.7828147400838953,0.3941101225034813,0.6751048884539097,0.4500590179139162,0.660649271169467,0.48642420855819524,0.7584991130165911,0.34386293119690386,0.9239070482754733,0.7903455083735522,0.7807294554993983,0.5008294633142248
25,3.2990746489554614,0.5636974276772766,0.8147816013157858,0.37007023265625866,0.5374738148809062,0.03484705454777931,0.9053492159562949,0.6222869150332329,0.966792645242622,0.5349863125371824,0.652713391225684,0.3480679049643806,0.44076140061283925,0.030125686122974314,0.5912580703019256,0.4200815469111421,0.9680239920615801,0.7334509163129478,0.6218670143156345,0.4283989456096319,0.7099784492860914,0.3550698883118337,0.5710809262412934,0.08399096074238235,0.4374067118852394,0.02187885955669873,0.9792005739633154,0.9445700227161729,0.8422112012025691,0.4142832746569202,0.7854632608208588,0.2567376277987434,0.473848064862864,0.025643588898249838,0.5842853522362768,0.23654163492843605,0.6406855835924316,0.1814339693571397,0.8491067841371185,0.5639288109312229,0.9374628228827369,0.6616607652594964,0.8610139671190057,0.501695260989568,0.684309253694116,0.1997221794135463,0.7206851862653267,0.36224874355708825,0.5272435897435898,0.8796183019329582,0.5654454005833058,0.6193558182445708,0.2836474263206803,0.5820124163385147,0.36397747421922655,0.5952781795927451,0.3670120865017205,0.700495950854982,0.30020053900644217,0.9285472367716507,0.8021689422827722,0.7175513172892369,0.4470753114856913
26,3.253234419174098,0.6865124799633616,0.7959093590326103,0.4146751664300434,0.5742138608759554,0.07875771436823059,0.9205660293595881,0.6399780591377895,0.9783049518548316,0.6264726370342846,0.8361286531877031,0.5785019507994247,0.5479285843033459,0.05400685211036359,0.6552542711433662,0.5255111580788938,0.979338229281542,0.7724049216550786,0.6673535968883302,0.5957071815901294,0.7729796157286508,0.42793597359459146,0.6116413172245174,0.1854316215337353,0.42514554827918716,0.023379794010566578,0.9775570028763089,0.9423821085925926,0.8679300832527244,0.5260594169915017,0.7452539435261428,0.2839944305995921,0.5286599848615352,0.10995031638079916,0.6773559961871332,0.2922369720693132,0.6369086867584417,0.20650965416928824,0.8682945771618479,0.6261905693813633,0.9540825740635579,0.7340874958643673,0.8724939524726248,0.5385369077323743,0.5837046753014518,0.17725516086240126,0.748954795164609,0.42545300286303295,0.5608974358974359,0.9072216654316655,0.5847867211272801,0.8100757314288748,0.4915403781791218,0.6218493195864901,0.4256533007804153,0.6202842995437854,0.4954025286772768,0.749791186278206,0.33735608577511217,0.928372358456763,0.8098657844616033,0.7729324267876309,0.5241007998334682
27,3.1856184240497987,0.5434699641248759,0.7425541977877153,0.38623156609189335,0.6920322580172942,0.09954717924746112,0.8843230877692437,0.6181585162353949,0.9451701095116813,0.5133408489145996,0.8499142544900543,0.6092134409078609,0.594698213026471,0.08162032456298828,0.6379278289779282,0.5325179126802222,0.945866253538807,0.7890223042940461,0.8297914106192824,0.7106920424149639,0.8876538130714138,0.6149046702959595,0.6289146706436451,0.21229715595003953,0.5064850851937347,0.029295199151424065,0.9811756017010698,0.9463149189468534,0.8898897644968797,0.5274468212799761,0.7793850864237496,0.3034161227273623,0.5529571021466723,0.09669346575928628,0.591553440658476,0.16594704328945029,0.7078139636735241,0.2316416272741295,0.881844528159792,0.6404995050514698,0.9646960617953199,0.7696804990941264,0.8670994860011122,0.5828931194326947,0.6704119512420739,0.21928628924524263,0.7741890076793609,0.44003002603852026,0.5808150183150184,0.8622043507449626,0.5747658031189967,0.8021450047788458,0.5036892145542474,0.6057344646201849,0.4293015324929181,0.7697290530766663,0.5993570586181497,0.8468032065838426,0.47207074128433396,0.917631810440965,0.7737322852119768,0.8007079817075778,0.558819439213437
28,3.178692290677559,0.6461338829097015,0.7163799677430497,0.27399004803103727,0.5492924345317127,0.08527556899308751,0.9162593957368144,0.604764916803046,0.9691573698748072,0.45776698219089496,0.7489668396407856,0.4308224161723609,0.5247406184680283,0.038417569956404704,0.5945985400802674,0.3987605487193259,0.9658464516898979,0.7363453799925995,0.6193366051406384,0.48704784412466057,0.7635029640140912,0.4213401749368028,0.5836605255209907,0.12206459750013082,0.519702484055902,0.031409018664833616,0.9827162895615599,0.9572034516326471,0.835565821099086,0.42281907159341015,0.7177678416879663,0.22183813321526702,0.4987924820201072,0.05574111571312883,0.5223279670761968,0.17474929638572534,0.6566219957489924,0.2357548766888744,0.8551774916662884,0.5774613145807913,0.943399997977902,0.6303813799392405,0.8954036499357747,0.5666215106743197,0.6440101685944928,0.2095713057095259,0.7283285409938798,0.37000666010082345,0.5469322344322345,0.8955850814186461,0.552786817219035,0.7017834386449318,0.341695779308562,0.579314079367003,0.3325005207331513,0.5659438633581841,0.402754891479229,0.7338471115319534,0.32413711657511435,0.9201661620777254,0.7908322018487287,0.7327732893997406,0.4574512211939701
29,3.0864384394730786,0.6368216166704832,0.7815521598074149,0.2994220287411408,0.5578729558772508,0.031413601833348695,0.9178288450402502,0.6014543971449243,0.9752937649572868,0.6046075756927609,0.9051848498244709,0.6072515583272711,0.6184642336505045,0.07718180707354086,0.6411386182898398,0.4844224244093591,0.9677287323501657,0.7200493541230233,0.6589614951394158,0.5544697089761341,0.837803857124539,0.5105792258690292,0.6419120635977233,0.20581097530376685,0.4989746434263916,0.02136858682168339,0.9779173949972643,0.9417201786651003,0.8930258091484216,0.5249210745659086,0.8100138700620219,0.23162113295488185,0.5786345959002759,0.12851638354065706,0.6780623978696363,0.21562619994768362,0.6974288008369932,0.18939677859543433,0.8738001220428563,0.6230188202672697,0.946911076548211,0.7029311740580911,0.8993075229078961,0.5456708044317617,0.7217326394516421,0.1759393603230635,0.776343202220476,0.4089724159848107,0.5160256410256411,0.898465492965718,0.5629696961914091,0.8642542345882229,0.47197673483744906,0.6262602338149637,0.3935846752490574,0.598712306665183,0.45979647972548665,0.7984650949379112,0.40643172878804756,0.9179330037401313,0.7889964082195678,0.7840150611186884,0.5139592871685029
