epoch,train_loss,train_accuracy,train_1st degree av block_rocauc,train_1st degree av block_prauc,train_anterior myocardial infarction_rocauc,train_anterior myocardial infarction_prauc,train_atrial fibrillation_rocauc,train_atrial fibrillation_prauc,train_bundle branch block_rocauc,train_bundle branch block_prauc,train_early repolarization_rocauc,train_early repolarization_prauc,train_incomplete right bundle branch block_rocauc,train_incomplete right bundle branch block_prauc,train_left anterior fascicular block_rocauc,train_left anterior fascicular block_prauc,train_left atrial enlargement_rocauc,train_left atrial enlargement_prauc,train_left axis deviation_rocauc,train_left axis deviation_prauc,train_left bundle branch block_rocauc,train_left bundle branch block_prauc,train_left ventricular hypertrophy_rocauc,train_left ventricular hypertrophy_prauc,train_low qrs voltages_rocauc,train_low qrs voltages_prauc,train_nonspecific intraventricular conduction disorder_rocauc,train_nonspecific intraventricular conduction disorder_prauc,train_nonspecific st t abnormality_rocauc,train_nonspecific st t abnormality_prauc,train_normal ecg_rocauc,train_normal ecg_prauc,train_prolonged pr interval_rocauc,train_prolonged pr interval_prauc,train_prolonged qt interval_rocauc,train_prolonged qt interval_prauc,train_qwave abnormal_rocauc,train_qwave abnormal_prauc,train_right axis deviation_rocauc,train_right axis deviation_prauc,train_s t changes_rocauc,train_s t changes_prauc,train_sinus bradycardia_rocauc,train_sinus bradycardia_prauc,train_sinus tachycardia_rocauc,train_sinus tachycardia_prauc,train_st depression_rocauc,train_st depression_prauc,train_st interval abnormal_rocauc,train_st interval abnormal_prauc,train_t wave abnormal_rocauc,train_t wave abnormal_prauc,train_t wave inversion_rocauc,train_t wave inversion_prauc,train_mean_rocaucs,train_mean_praucs,valid_accuracy,valid_1st degree av block_rocauc,valid_1st degree av block_prauc,valid_atrial fibrillation_rocauc,valid_atrial fibrillation_prauc,valid_incomplete right bundle branch block_rocauc,valid_incomplete right bundle branch block_prauc,valid_left anterior fascicular block_rocauc,valid_left anterior fascicular block_prauc,valid_left axis deviation_rocauc,valid_left axis deviation_prauc,valid_left ventricular hypertrophy_rocauc,valid_left ventricular hypertrophy_prauc,valid_low qrs voltages_rocauc,valid_low qrs voltages_prauc,valid_nonspecific intraventricular conduction disorder_rocauc,valid_nonspecific intraventricular conduction disorder_prauc,valid_normal ecg_rocauc,valid_normal ecg_prauc,valid_qwave abnormal_rocauc,valid_qwave abnormal_prauc,valid_s t changes_rocauc,valid_s t changes_prauc,valid_sinus bradycardia_rocauc,valid_sinus bradycardia_prauc,valid_sinus tachycardia_rocauc,valid_sinus tachycardia_prauc,valid_st depression_rocauc,valid_st depression_prauc,valid_t wave abnormal_rocauc,valid_t wave abnormal_prauc,valid_t wave inversion_rocauc,valid_t wave inversion_prauc,valid_mean_rocaucs,valid_mean_praucs
0,4.706204733155531,0.5328986018094231,0.5484572209348915,0.0468950296714142,0.5635290496995975,0.00992210322306759,0.6853939442569864,0.08203495505415544,0.7021040156900451,0.089289391035994,0.47589407105278714,0.005291096883832655,0.6293578557795665,0.04933680003864542,0.7629208185481013,0.08302832341563848,0.7591614961322428,0.02503779261070381,0.7860066398490362,0.29012114817881124,0.9063013513425775,0.24009172828045489,0.7527141861606168,0.18657314309993225,0.4796273202777146,0.01544020196165718,0.5245824449118205,0.026932071743077133,0.5333354871041454,0.0070534873075726165,0.9398647474990682,0.794023930427218,0.5201200599896793,0.007869162676432949,0.3752064696672436,0.005737282253150008,0.48022688514556355,0.023466049409330215,0.5745499940198541,0.019216806601882953,0.7503310055430238,0.25593032092459433,0.9180425246969105,0.783627093956389,0.9017247169628765,0.683691271022415,0.5909826928460544,0.05312479323851539,0.3131448300318167,0.00933247076078636,0.6714582201897829,0.25347354370956665,0.632301428967641,0.07571448914653092,0.6452822875884479,0.15854824948583726,0.5404881487355714,0.5541411338079892,0.052556916230489074,0.6951046555955303,0.08095462744506768,0.6423879755861374,0.04179182847399354,0.7802755144927569,0.0887591638308254,0.7771196107928594,0.2806329796845974,0.7468559003194728,0.16768388290023672,0.4731544469111038,0.017524065068203833,0.5470957331059225,0.024249434702668878,0.9350517872085639,0.785324762375799,0.49527306182922753,0.02448392373425294,0.7533219099269903,0.2831163468818238,0.9221125045078309,0.7878075743642264,0.901004540980221,0.6942865830779539,0.5995580775013336,0.05513093413815498,0.6835357369424312,0.2512644468527215,0.6253521820216338,0.0746738182922639,0.6957090482206253,0.23189008050332993
1,4.315221436840851,0.5360709669839032,0.690033227071615,0.13747364355901548,0.6592548921769563,0.01554670933702269,0.8498339569318749,0.17556194758631538,0.7983960051626348,0.18140493989700035,0.31859604455366114,0.004086241860117276,0.7460228881415425,0.1147860391173601,0.9405737487618065,0.40250800332935943,0.8139665839819805,0.03450743205870388,0.9151189446551415,0.5962243144685035,0.9587404171849621,0.3190955578388753,0.7811734946601433,0.26441006121076027,0.5503023506130581,0.024175479872629788,0.6335509739324614,0.03576264352194389,0.5894311426661694,0.009215020197850341,0.9581623043816133,0.8304953050258863,0.6344346671540381,0.03413379499138086,0.4718532602863362,0.007396056476565347,0.6042541126885895,0.040079798179048366,0.7413385310768248,0.05151633413194637,0.8524389788702472,0.4368229711244464,0.9601963293602852,0.9039871192552058,0.9587214725346366,0.8522738611305734,0.6333461882173395,0.07253742834066919,0.2810949489750687,0.00891610496936158,0.7422423236452614,0.3782466375687553,0.7718925377185946,0.16535757867233278,0.7251911663616478,0.23448157783544724,0.5423385320292536,0.6974900330380059,0.14151385129576674,0.8518137523528151,0.17808199653700185,0.7629675402046313,0.11838022889965116,0.9454994266915546,0.46860299439437464,0.9075192001476727,0.569389810571176,0.7783310596544948,0.2513465074537212,0.5666942242403132,0.04302154531267406,0.6488737281656178,0.03334269633926569,0.9539507645444126,0.820384056637056,0.6121530967717953,0.03637458767551041,0.8488149732033519,0.43181409153989875,0.9623566457618045,0.8976029357644536,0.9587426512228767,0.8532261927895098,0.6426468790920995,0.07827003405936467,0.7444502054913589,0.36934972260839727,0.7645788884744498,0.15578891117022747,0.7904301918160783,0.34040563519050304
2,4.153737996358763,0.5854776172012689,0.7711741455170806,0.1609228615339238,0.652901108566651,0.016367560725615682,0.8798431163608611,0.21626789251974968,0.8367803095672962,0.2656928134951715,0.2974771784933161,0.003998376837584718,0.8178831312799956,0.1860209162344877,0.9377021680712326,0.45814332641457345,0.7615007380211385,0.030907665460872542,0.8711547868203552,0.5488415316845832,0.9551345709278215,0.5188387987157284,0.6966862734371987,0.1677929295124122,0.5829404223883191,0.029024308342358043,0.6581223188653935,0.04292267067678493,0.5910896547483677,0.010857844856803541,0.9537607044269112,0.8190199237877096,0.6790861249677475,0.02958647984249726,0.4533443766011133,0.007455703024827131,0.6023853096734632,0.040809891731888835,0.7911147739504844,0.06354998643027052,0.7842548919632072,0.345529420233773,0.9339434925688859,0.8244537260366536,0.9331729913165056,0.7735212266659265,0.5916655663471294,0.05876983803359245,0.30125044326677763,0.009169322039861916,0.711460555174266,0.3339789831768335,0.6759164149811402,0.09076924748700352,0.7200671372424101,0.23281589405774947,0.5908009516256939,0.7801067298336717,0.15648941517829068,0.8833542803364228,0.21521454473123985,0.8411101742069571,0.2067292523625147,0.9393528528725948,0.48027971757525484,0.8663114559641242,0.512759923441388,0.6982036244068255,0.15111065238616153,0.5925548388721259,0.04536144516473249,0.6696895400811621,0.04018501852154292,0.9489554368693209,0.8068537320257336,0.6111610438162807,0.03585462871601902,0.7834939525608268,0.3599926403351895,0.9380701172944341,0.8174171098790521,0.9301560667404943,0.7639429122369138,0.6010605751976332,0.06525638625142192,0.7118886788637833,0.3229308358004317,0.6679794106676613,0.09030141596921004,0.7789655486615199,0.3169174769109435
3,4.0437313745870895,0.605539889554694,0.7720511330177869,0.15775398769110885,0.6936827955746123,0.017415411093317908,0.9140118982621357,0.34467390338406506,0.8424044823091619,0.26692186017034836,0.3206378762417067,0.004188069922617027,0.8466634563338717,0.2689713134256998,0.9566396407244381,0.5745680255862808,0.7776803984656179,0.030229817861766088,0.9282276187122858,0.6462422643948167,0.9665990034216088,0.5591966298206522,0.7951174695511928,0.2911337223784173,0.6225306570819239,0.04129592872036633,0.7213137187758683,0.060673850161502646,0.6595890761612874,0.012918284699395911,0.9654388736148152,0.8391444496536241,0.7359917245420143,0.03373026032332435,0.518824497343287,0.009830025873510208,0.6673674355288804,0.060963301202964795,0.8090348792010527,0.07389219277266937,0.8594955557922072,0.4548642316159919,0.9656200157886822,0.9295439628411934,0.971526222342033,0.9149499258712753,0.7000834779507783,0.0954728391201633,0.37186828943350503,0.010934702845061678,0.7893113362377657,0.4299713342085062,0.82198214869083,0.19089521399981507,0.768988218503821,0.2815529042168637,0.6021675918583135,0.7788066206104035,0.15675099369181156,0.9139194324652736,0.34920104811513386,0.8511112684537934,0.2778292295845665,0.959854353811787,0.5858237843453645,0.924915908151902,0.6008622688418871,0.7931081151491894,0.26249071869152457,0.6491080158966633,0.06485347605722165,0.7081489296006588,0.051809020768810894,0.9595719654377226,0.8170973631660581,0.677730485531759,0.06306913264982861,0.8529940196191242,0.436330700480958,0.9672977021513904,0.9262367911733864,0.9674805505666477,0.9111505195569799,0.7103454095736942,0.0981074019953759,0.7847258305232744,0.40401869769471827,0.8153574039537486,0.18951815008580647,0.8321547507185645,0.3871968310562145
4,3.946068349448764,0.5945834802020914,0.8185599547637276,0.21293968003223873,0.6852477904507517,0.017270785830034385,0.9006936645805395,0.4874784160428693,0.826483717447055,0.263996676256811,0.38862612137128905,0.004677514672084048,0.826584971670447,0.28924633554498125,0.9255324541725943,0.39917281774087665,0.7810545696996812,0.024425825248588537,0.9009745477158381,0.588714606457625,0.9728676243402834,0.5455718228366783,0.8013780435416069,0.3160852320805061,0.5638164640689138,0.02799185416531727,0.7014944525497668,0.061396275243434106,0.6629819816662865,0.015087681997106212,0.9687134196115191,0.8623899467319082,0.7091230272211231,0.02857759011517268,0.5403574386589584,0.011316740203079774,0.635124545564048,0.05509842392019621,0.6837812960969581,0.041662071385124816,0.8366766705714166,0.37694794881565963,0.9686347334327515,0.9293736534244104,0.9553039845470794,0.8687278901706604,0.7040380995348491,0.10341967595922041,0.43590574793880943,0.012440829169472856,0.7510792663821915,0.4128517057920844,0.8034404212854322,0.17536423578842017,0.7595567311109199,0.27431639367786764,0.6006696625253326,0.8103542574037385,0.22373574987839961,0.8975715374901717,0.4446497818238751,0.8389122042136371,0.292226876398225,0.9250706944399736,0.4220072861954771,0.8926546079291668,0.5528650446787364,0.8032549599569273,0.29467318709805157,0.5810473836391944,0.047809574059088346,0.69135189378345,0.045081225271407024,0.9658306018657318,0.8533602356421697,0.6541080750256228,0.04955564618818277,0.8313005651947625,0.3776385440252337,0.9697517700814577,0.9271750216859529,0.9519964703010687,0.8605416362776236,0.7120818662398759,0.10143168367024918,0.7513385602102276,0.39901550252946727,0.7992077582991421,0.16660616205440074,0.8172395753796342,0.37864832234228374
5,3.878582489727219,0.5708494888967219,0.8053328520055424,0.21145725984254451,0.7475174363864391,0.029387558139630274,0.9030618321481402,0.3792270228135192,0.8263437403842144,0.24937045583884485,0.46556957357631235,0.005683247829504289,0.8683845360810036,0.36056692398057033,0.9542158661209942,0.49207152761293405,0.8488766835764526,0.04122746303847737,0.9196384212197566,0.632023020855089,0.9722776746809738,0.361081698315939,0.8364197656922905,0.3085015627776505,0.6097793406700851,0.02855351195545794,0.6678409126359113,0.0427458982747251,0.6486538910713912,0.011858437699473333,0.9635531169262933,0.8249906352723988,0.7003272286488346,0.05159752373220485,0.5809715507444575,0.010380064821547658,0.6620597633705603,0.05759109697155465,0.8514400191364669,0.1060751690248657,0.8309056599511422,0.4066489153376791,0.953261657441711,0.8957490210205377,0.9473662424794059,0.8466532103980626,0.6656827727557055,0.06973673080955535,0.4370027408662418,0.011595794494247556,0.7844120165910717,0.43756718803041145,0.8073004132641859,0.1757696861323318,0.779161373400984,0.2710811778853753,0.5676271037095779,0.799011570077703,0.20084005342775468,0.8983152057372948,0.3868082701079504,0.8714410158043573,0.36263224112882075,0.9599513787286018,0.5082363588625238,0.9133446442244069,0.5927357485451454,0.8303603466915106,0.2799269528036709,0.6093399191737764,0.03704792440402907,0.6663754190436981,0.03793161995592233,0.9573442445852689,0.8067307435044594,0.673192897046875,0.05427699356404625,0.8208251828291133,0.3942598968800288,0.9562625233822678,0.8988066205111561,0.9413145670380544,0.8293185897603694,0.6663809108104175,0.08017848119126804,0.7791148201119602,0.4200329988942753,0.8027779932860873,0.17057387649731387,0.821584539910712,0.3787710856274209
6,3.8142745353937175,0.6005169780284338,0.8497859336076141,0.29883090904542886,0.6872318990839943,0.01968021192767641,0.9451862917161516,0.4420997770883052,0.854798976224082,0.2693023677168891,0.4761911095347875,0.010668124650610844,0.9022304802664932,0.4369564973884307,0.9505849055107849,0.5594654930056442,0.7947412978205898,0.026313482975198393,0.8892898818157959,0.5332766614421047,0.9840341603271362,0.7248614774456826,0.773455511102874,0.21107887224856503,0.6641378944012488,0.04720047591662861,0.7170622817638955,0.08659265509805311,0.640365303846474,0.015967508553429537,0.9745502417269322,0.8876434633576338,0.750659899909693,0.05404773112950214,0.6240650598895491,0.01355175674886167,0.7066378194451328,0.09933419149573679,0.7833148197982697,0.07652567732945643,0.8509621820129794,0.45287579551264046,0.9749146753653443,0.9492079571237773,0.9380716904886199,0.8137197121250677,0.697705740898894,0.09026057843190323,0.5593399696115998,0.026963399699298472,0.8002949055562186,0.45182743180071133,0.8327029678829784,0.1955606479615969,0.7931659961387741,0.29976203296995513,0.5922988809586748,0.845694895777152,0.307020486759797,0.9388515284363013,0.4239645264320805,0.8977959150978887,0.3833672510958546,0.9567350480749396,0.5747969403073635,0.879117345017657,0.5017495645283234,0.776748113851505,0.17904112320262627,0.6753232419457045,0.08406559091607432,0.7082467064635654,0.06749371309793224,0.9688424536470802,0.86646389886521,0.7147404664673489,0.09954882856979705,0.8392989817045151,0.4244724014674552,0.9754808765839555,0.9474077683058495,0.9325597973491874,0.7981861569725122,0.6991770696930015,0.08549762262709595,0.8008828372356206,0.41609740724334165,0.8282075345020514,0.1920325817446252,0.8398564257404671,0.3969503663834962
7,3.7531729983521496,0.6362648337445659,0.8436752702687179,0.2846838360086299,0.6611358183748668,0.021047056184856205,0.9559670943563806,0.5594543107246477,0.8368396056801597,0.22198409249630466,0.4702667364752841,0.011429281059353239,0.8844102986725045,0.4543978865111752,0.9018255270777246,0.43972972907459185,0.7867384839093847,0.025304537601387997,0.8763100825128909,0.5918445942588865,0.9634002823906118,0.3864127519789792,0.7357901939521261,0.24297480623019563,0.6039485095151025,0.03611215249290266,0.6909776941208563,0.10425037048533924,0.6298674948957586,0.013403848479089842,0.9776497578917881,0.9064295673307202,0.7986397501505117,0.07731597041271294,0.5382654181537014,0.012060773265621084,0.6515760923752736,0.07535434971092056,0.7461739524777737,0.08709242341335327,0.8310872899852308,0.4387800141934577,0.9656534433690741,0.9259741539241235,0.9642916680536393,0.8969278672933888,0.6192558170320008,0.07332328518060015,0.48263016036406975,0.020077472051482376,0.7236748552757222,0.3924211268939892,0.7111331738179658,0.121078359565673,0.7635070950441969,0.2853794083393224,0.6314212705965283,0.839555897649938,0.28031582999332316,0.9511415620309261,0.5415227698149856,0.8798409694597853,0.43059586893241,0.9065249936639102,0.44905886349108093,0.8632681183127708,0.5498080792882472,0.7411972090605911,0.20883862588996904,0.6097385947316074,0.049018125754555456,0.6916308886667059,0.07979032890823129,0.971664329147695,0.8829838120014724,0.661522749842015,0.06743863930933988,0.8201471224751218,0.4166968870757693,0.9675835131902456,0.9205875885889852,0.9584861906635518,0.8851534120328742,0.6199998060041708,0.07009744513954752,0.7245941616201684,0.3530226582933299,0.7135069750093249,0.1252027400845587,0.807525192595533,0.39438322966241746
8,3.714026622802471,0.5956115615086359,0.8597660569479095,0.34263476439727064,0.5979705373394401,0.013814544325685098,0.9343615744535375,0.5023077549232777,0.7980437564908401,0.21394233771960358,0.5925627081239779,0.012825249589816963,0.8830819399651431,0.4283989222054235,0.9499715320795556,0.516791926439944,0.7627611311791449,0.02085897462946332,0.8666852912324167,0.49552688569944287,0.9594817211849103,0.5344874067095597,0.7493419419263122,0.2217702469178099,0.593438759794221,0.04557463043090462,0.645301244721162,0.14405009451792866,0.5759778694838336,0.014017722419454067,0.97479704088405,0.882333822753167,0.7295594306355896,0.08061637810493678,0.5215371238157609,0.009638746747460411,0.6265377196248325,0.07429381615872557,0.7973654467168999,0.10155289414226722,0.8131721790333216,0.40992998625830024,0.9650183555238869,0.9351216128469919,0.9440828362133603,0.8294637532155493,0.5777140436681085,0.05593448274352415,0.4910859974487535,0.02506409446916909,0.7552550877297685,0.4169418782279214,0.7612688501513604,0.13415559909957192,0.7586976990910805,0.2870018663728142,0.5803154462948278,0.8464700286473932,0.34658910304485446,0.9251474232207952,0.44255660131185615,0.8667489854972958,0.37306560577951603,0.9552601786618633,0.5455413322319557,0.8540371035813081,0.45156430727597113,0.7514242579849384,0.1876883971082724,0.5922988471981501,0.0457666824189226,0.6605529171322708,0.13226878522685429,0.9669924351330108,0.8512697190260227,0.6357416533463616,0.06583928646971116,0.7973953566701288,0.370748509546342,0.9679468341489368,0.9347939682801615,0.9397374441967343,0.8151677953235281,0.5642029196372278,0.052616906548911185,0.7511123469757279,0.3817599713958192,0.7477001118985453,0.134835372163065,0.801423052745668,0.38325452144698524
9,3.6675809215762585,0.6860827164845494,0.8986993132029845,0.35432570062604396,0.7236618885588078,0.020859503722079113,0.9140182442112922,0.4970590470193175,0.8370288565612346,0.20842342852740542,0.4201549160185443,0.00611980634711899,0.892898594387021,0.43112847378648844,0.9525790721886007,0.5193825900696634,0.8431723723486618,0.04375568596365738,0.9006262300096749,0.6181531942244973,0.9646013399995952,0.44770683705694386,0.796640261430154,0.3047995532054437,0.6673697209816951,0.08005053999324353,0.7625320212626262,0.21821045400310354,0.6990850859751871,0.023323342354382624,0.9752168429551963,0.8811955736980654,0.7724197315515611,0.07814439667529186,0.667529875983369,0.020213072650491035,0.75039210229506,0.12233555934895546,0.8278627955188773,0.13815242901704827,0.8624614500068307,0.4596772424811196,0.9614761705373552,0.9303958541994799,0.9537761937605274,0.8659410616496866,0.6631822726872099,0.09466422899675518,0.521879863621588,0.023905930052824806,0.8097874268918596,0.46783253410733444,0.8235053430700571,0.20363957804866217,0.8024060763852142,0.30997675453173473,0.6655211912943871,0.885976870685613,0.3246907533589977,0.9127692335183817,0.4817322546140455,0.8849635465612756,0.35518925252314854,0.95590149522651,0.545287827665428,0.8873599239008219,0.5602766253997653,0.7972492363814393,0.2778635730759457,0.662521140296027,0.07413149833602031,0.7533449979415396,0.20125318564523278,0.9686477854118325,0.853732396436322,0.7370780870802777,0.09829595895548031,0.8439990634699162,0.42794832727132354,0.9643164928853846,0.9297146529139645,0.9443840695718939,0.8506264321376809,0.6560218245307725,0.08212246498018923,0.803669726475372,0.42284812767155666,0.8171598657217455,0.19870839643193144,0.8422102099786752,0.4177763579635645
10,3.641918130436959,0.6182293502526143,0.9169636991311919,0.38308331702821763,0.6643467863960577,0.017749739356129217,0.9540702116468905,0.4737226931370778,0.8394985588787833,0.19281340415007553,0.5360490433686036,0.021389795233539427,0.904562299615561,0.4191822541593108,0.9184908434383302,0.3899076233519024,0.8479937997451469,0.05823843382455163,0.8903853624098027,0.5509002978955233,0.9664103356338837,0.45156354789985936,0.7974653908958361,0.3315413404501213,0.6530608455538247,0.05796301717506524,0.7165476562721047,0.2338797223998089,0.5441058175390502,0.008868736577527044,0.9775421258165083,0.9085056201669703,0.7581126499741979,0.07084537394077706,0.6502429427190102,0.016787280458458505,0.6589068978305799,0.09677257295078381,0.785196323206953,0.11311364239140012,0.8213726970849913,0.42365054976293104,0.9713654058930563,0.9425492553819806,0.9667162390217388,0.8936098937314761,0.6532270205159222,0.07955506643599969,0.4997320698588441,0.020581655255621757,0.7137663337013607,0.37745014174555014,0.7548865656843468,0.16584051019247065,0.7831160739166376,0.29615636480973573,0.6080711957000616,0.9049727754906238,0.3887685144678944,0.9511633032331848,0.4649561925273997,0.8910534235622098,0.35606142669470664,0.9245948642988657,0.41429101391230294,0.8770432729055763,0.4976195589602666,0.7975129514492287,0.28437039088844324,0.6426326855205234,0.06034354527892886,0.7111958183849909,0.18878878548818423,0.9685559092821128,0.8707034831106749,0.6704386141926302,0.08506113963336799,0.8007541296099723,0.3949981968917584,0.9724414968510591,0.9415450392418521,0.9614277369140529,0.8801507057705937,0.6440352102429798,0.07420237903789338,0.7059158442722493,0.33585416374339966,0.7337817232375978,0.16315619664398853,0.8223449849654911,0.40005442076822845
11,3.5848597118793175,0.6210198566560922,0.884765599349614,0.4044132701605917,0.7266754515286492,0.023695469969683174,0.9478446556133535,0.6868037995756314,0.8562753085112598,0.2853127980293081,0.43820726966674833,0.007752333050604538,0.9163953666017297,0.5177091315111021,0.9451943102810073,0.5831361396465342,0.8115365424641792,0.04118082895276713,0.884641952204709,0.5609930165369713,0.9776366800732825,0.6838119655234133,0.8159048349566984,0.3379046578071497,0.587814394914359,0.047228794599706414,0.7941120415908229,0.2626459933781336,0.6751054750634375,0.016153590174651213,0.9766475483760642,0.8836169408997375,0.7718938811602305,0.08349485247756583,0.5679139505639497,0.01307386558203609,0.62012264799858,0.06688269038811204,0.8623699816608859,0.1991809798058285,0.8263027342930629,0.4153000104950384,0.9685289268671358,0.9331749716999436,0.9505435164650431,0.8448014848176708,0.6586217155461813,0.08206934183381492,0.4135495264433259,0.01727606598527448,0.7315675653497253,0.41027518971512145,0.740458114227093,0.13041998274888933,0.7827165381450433,0.32839646789866467,0.5880694334302582,0.8720223108174399,0.3867199744389802,0.9223767601439089,0.632524985672606,0.8999786872184816,0.45352987886107454,0.9507453463177457,0.6015942680673,0.8725713997955277,0.507446568636758,0.8001251151449293,0.2821984903205892,0.5738674466718985,0.0388319602924549,0.7711705287302242,0.21077352643528785,0.9671130375148574,0.8461855693485241,0.6109914422571411,0.05136603625417474,0.8081654050054448,0.37050259492061355,0.9696961202623664,0.9292667479796587,0.9423380215931023,0.8237640943923412,0.6474587516368399,0.07873222670542795,0.7265273316101577,0.34667364233228615,0.7364766132040284,0.13096933658484422,0.8169765198702559,0.41819249382768253
12,3.552968456467539,0.58527200093996,0.8420598527993691,0.27975553372929907,0.5838692268704866,0.01413724487914387,0.949129890228491,0.4450350445770062,0.8086416580095853,0.16408430219945713,0.5430778281638363,0.026420371054814228,0.9304871206976015,0.4796236665157989,0.9226871734798899,0.30435600741341096,0.7470786754658965,0.024617232195275448,0.864324489392793,0.46658550629534234,0.9579606921739915,0.3854416701885399,0.7517818521332644,0.24394004739358696,0.6743791021657597,0.08359538278557055,0.7164496245958121,0.2458192526077254,0.5417058177474796,0.011237578595590686,0.9740488014319989,0.8857133051817949,0.7058627010406812,0.06518440667518761,0.5772483552043234,0.015885738578030457,0.6709288107494706,0.12057675892260178,0.8593195839811825,0.179392190878558,0.8239951830660784,0.40820346813602226,0.9634557138326642,0.9320074721177127,0.9359920672808522,0.8197728735942653,0.6342519059729397,0.07369482899248309,0.5368969724879087,0.03641836338140947,0.7477643456075435,0.42574737005523,0.7477680157809691,0.1540316619382818,0.7696602100138796,0.2804337414954669,0.5527359238699445,0.8252297618499115,0.258574025222836,0.9462786805175001,0.4044029789090891,0.9036576452094159,0.41685634607207994,0.9230884844571978,0.320362299573334,0.8457829571129531,0.4086122148493004,0.7446014191295093,0.18113767732441388,0.6632265862041471,0.07895703559899431,0.7089998823736987,0.20788873644777187,0.9631807726768147,0.8446100855836235,0.6740888645789632,0.09792827372321254,0.8024823571905926,0.3620517657003742,0.9633210977612388,0.9261250985409305,0.9286299072154505,0.7944784654978954,0.6220806052669867,0.06413517385770273,0.738216816197721,0.37145414980515556,0.7339048116374487,0.1550645668893994,0.8116731655862219,0.36828993084975703
13,3.515296735602195,0.6688403242862179,0.8496098133518986,0.2705353316386466,0.6294901989981649,0.021371083294400142,0.9388237089763418,0.6165692903292118,0.8180291383286368,0.19697155063953165,0.532027940336151,0.013820374697913983,0.8753289350603636,0.44953753647565076,0.9477166200625252,0.5569610659045536,0.8017576527199315,0.03475933199546413,0.8773036647403286,0.48975342150575857,0.9729179230197235,0.5036778242740086,0.8126355435924933,0.3382869578764128,0.5971813201139206,0.07192004897942009,0.7687552824654431,0.28733342291270064,0.6667167765762834,0.014989075798512117,0.9804722026079881,0.9161999044957305,0.7444121172701471,0.0881992190262014,0.6096352144494371,0.016069752831151633,0.6658557768117213,0.10258265931833063,0.8461207540964,0.17299117929109067,0.8709102101142704,0.4812640309179064,0.9707340399959528,0.9403166000193809,0.9556898716239962,0.8702032161048313,0.7088125407835828,0.103712313517428,0.4969050436371517,0.02822201446107386,0.7819236094533302,0.46789163403430356,0.7910763524886529,0.17161521578855185,0.7888785481413397,0.3163751560049295,0.6334478808705613,0.8226300854543336,0.25038041007997214,0.9266624574110695,0.5385123742354371,0.8503560235785163,0.3621719494576141,0.9479964581371487,0.5565096840561882,0.8592039310496713,0.4277618700292938,0.7983990471849256,0.2700627942686696,0.5804237711350503,0.042345986590256686,0.7399429512438981,0.20709256343619675,0.969544283863631,0.872449708803193,0.655000225692877,0.07855580920795906,0.8413187318971174,0.4102194548495963,0.9715341505621174,0.9369628036711068,0.9479515799958884,0.8481451915660558,0.7002687812212037,0.09383765456901585,0.7758388574462968,0.4021366241717924,0.7849625512868333,0.17513989384047643,0.823252117947536,0.4045177983020515
14,3.4873759586037067,0.6511279520620373,0.8517207150238526,0.30571666106124185,0.6327235954702853,0.02128662588138932,0.9461016785264498,0.552800002672341,0.7945750866371692,0.14967436685179417,0.5473458651061063,0.03604338552432905,0.9151605308431333,0.4957200905325457,0.9419990030033779,0.43972268481106774,0.7841404959765237,0.02860737738391487,0.8714788778456153,0.5367498226530429,0.9714098792411583,0.5282158868358435,0.7689761950132411,0.32458268676619006,0.6232434436381018,0.08008406936493903,0.7692752584372535,0.28884385083715,0.6436947035084797,0.014903734440753064,0.9807081522766166,0.9139557042177515,0.717592940999398,0.07858684611622484,0.5895749534284118,0.014442416354152186,0.6584117946156975,0.11490706412798787,0.8159550043854404,0.11017294611381032,0.823402908877336,0.4037326517342771,0.9762209705959686,0.9516589510381659,0.9530479459789842,0.8587432674908457,0.6229711486649325,0.08078169032311043,0.5188463797417232,0.038012385854576856,0.7512692804070185,0.4229658314461626,0.7333306029747685,0.15356043740716238,0.7770452850468094,0.30555659376310657,0.624724645343202,0.8243646485206073,0.28340248354202535,0.9342273534106884,0.5283160123902089,0.90082440413611,0.42345191922572395,0.9448705782821057,0.48183837810566205,0.8558995665466417,0.47939813345569493,0.7546731391416079,0.23013103614316874,0.6085530595201625,0.07463591189584266,0.7469810474622126,0.21652082418979293,0.9685161713000037,0.868580820369071,0.6423050013541572,0.08636433223872206,0.7945006100018974,0.3489332396814951,0.9753794422397468,0.9459106635036957,0.9431230602038814,0.8384710105212638,0.5997357776807799,0.0654491922199503,0.7413955697992738,0.3571281857020707,0.7216085042894442,0.154538472231823,0.8098098708680825,0.3989419134635132
15,3.462267446820485,0.663200563976031,0.8824062431038909,0.36035123203439756,0.7387494150105068,0.03482593839770533,0.9626584234313639,0.6473163558159656,0.8308003502934866,0.2271224635462947,0.550197603425126,0.020868070046389343,0.9131104324611609,0.5547128218267836,0.9413476723448894,0.6485727272323524,0.8644981675582137,0.06348974929318547,0.9076670026444004,0.6597997937762407,0.9829390851292736,0.6942421892365904,0.8734775345304311,0.42626359299908523,0.6278471244935753,0.07218381712171834,0.8227998463414689,0.30556051240233356,0.6901240532907165,0.016451882170523423,0.9856619175142178,0.9350685993759393,0.7733436317407758,0.1336237279760048,0.6161830834381251,0.015694329260717607,0.7397616653449506,0.12215626492849742,0.8114336901487063,0.14995128093345064,0.8603493352781785,0.46763551142086096,0.9653630831755341,0.9354068226617065,0.9337658890472789,0.8087226503671262,0.6960712120050657,0.09265845109935061,0.5393515314867168,0.034529142680867486,0.7988430412986394,0.47369841700545473,0.8106700818468193,0.16837553980483275,0.8122854275532119,0.348818533977476,0.6302757952242488,0.8521366293645264,0.3212654497838275,0.9465671237282886,0.5856130188782517,0.8933899623950988,0.44199211549127654,0.9423007781489006,0.6422444583519974,0.887483856474308,0.5801213244830773,0.8535081231450238,0.34097703860705453,0.6161543336033136,0.05550295822004891,0.79221350644004,0.2119630634513977,0.9726264192085171,0.8804459519479254,0.7133708757945716,0.08115618610382451,0.827771812806763,0.37523208991912554,0.9658391162643584,0.929541008863501,0.9236873266679684,0.7901639684099498,0.6709145933362433,0.08015234717903551,0.7834344124078545,0.3919181970684563,0.795750540842969,0.16359168125178505,0.8398218381642966,0.4294925536256584
16,3.424984878497011,0.6726295382446246,0.8554842149448048,0.32818872247290704,0.6934934254580027,0.022344516346269248,0.956567146373537,0.5681241526779021,0.7850878859647747,0.1747032163294414,0.5948758222920308,0.050709117143662566,0.9181753566627677,0.5062995902566949,0.9518136592501416,0.5074512074663644,0.8743994942416805,0.06264341620465708,0.8705916348257222,0.5126234587395742,0.9783944065729719,0.5861657185558151,0.8640223332319178,0.45657960727408814,0.6834740382108331,0.10380101765755273,0.7928138337658455,0.3080144019580754,0.6861233805847201,0.017082926979732238,0.9834979499205359,0.9308708737527567,0.7474173798056248,0.09997420039527262,0.6379614714695709,0.02574421855087012,0.7040189773836708,0.1330267767507563,0.8556331728660845,0.22587142421632853,0.8202733002236355,0.42777049548188284,0.9661715781015974,0.9347714928667186,0.9603712959147477,0.8902908923506112,0.6918889734249475,0.10601327113640147,0.6012981867926201,0.04995397520117827,0.7264991570183815,0.39927288439376946,0.7145812793762122,0.1403877460535242,0.8044203597952837,0.3295645892774155,0.6276323905189884,0.8191276231878559,0.29076534461604814,0.9437099425794,0.504972109180533,0.8923429183634644,0.39851935328102867,0.94988164320311,0.5009869676204524,0.8534203428288902,0.42884862602671203,0.8475533566283008,0.3695639725589566,0.6656874635421695,0.08580015600165661,0.7465614523907546,0.21336300397392077,0.9698064587913775,0.8766772043871448,0.6820810476397836,0.0939691643765926,0.7908305493979613,0.36052454455724336,0.9674508315052118,0.9237922870187981,0.9528864886462969,0.8684341522102562,0.6804471603860517,0.08803792027787818,0.7149305483389534,0.3199480487555333,0.7028223797090638,0.13538018440588032,0.8237212629461653,0.4037239399530397
17,3.399822186000646,0.6601750675596287,0.8768547604751302,0.28448525130586977,0.6339214366047117,0.01914983208278384,0.9669245368184938,0.6627388972785038,0.8345006465119142,0.21851922734908213,0.5552083421297821,0.04552970313040301,0.9006876076387145,0.4865538669742539,0.9410143201816001,0.5550881994789466,0.8128658029735781,0.038816338105141256,0.8676110731784498,0.5631830818181112,0.9682081792450922,0.6221556280241646,0.7996814930628464,0.3553860998834826,0.5957344370495661,0.07773611339220471,0.7782025434186919,0.2963270903341064,0.6289332099604779,0.010457440798309766,0.987310001653965,0.9424934354986347,0.7331065354347639,0.07110658876801898,0.5659869186806414,0.018010952757246908,0.6345810666767331,0.09624963820197358,0.8564314725112625,0.2144544628529919,0.8514967132332296,0.4982042099646516,0.965319182038059,0.9389705239137693,0.9462541781054636,0.8510230123023965,0.623191347649982,0.07403736044333303,0.4564381729035944,0.0298032843613409,0.7240806875149199,0.4283893553678504,0.7146576270485597,0.1333736942439364,0.7776616266423163,0.32816320340890415,0.6175874526389991,0.8375786312671254,0.25014853073902865,0.9419664768530652,0.5881324608683375,0.8653425564752949,0.3537404288155528,0.9383815835826586,0.5480120932314062,0.8430814150353102,0.48174405466551745,0.7824553044331986,0.2599082059293185,0.5899151870208025,0.059427254215839116,0.7371133035346703,0.21414542328302116,0.9729993817153001,0.8905085172374958,0.6081068881466101,0.06412666721157906,0.814754692366251,0.4018149139071179,0.9653235786001869,0.9310342338032491,0.9345849041803541,0.8222877891100573,0.6113345943062225,0.06648208564886829,0.7112581447431608,0.3576499617673987,0.7048920552032825,0.12546993042534713,0.8036930435914683,0.4009145344286959
18,3.3515332149095056,0.6959816707789919,0.9219067155833124,0.42499465114156126,0.6634724236415296,0.028713612113256935,0.9780473992026937,0.7658603261262353,0.8030770080401469,0.24355303316049332,0.6078234911627357,0.05049471103891364,0.9328458594406039,0.5937400713384418,0.9628856858142545,0.6069772431632978,0.8353503900655556,0.054757252948958,0.9043233118814322,0.6472360269317834,0.9751860993851494,0.6798886747739822,0.7746921256395616,0.27970862459886947,0.6607665085273235,0.12298747146250366,0.8134537185292021,0.37367268335453835,0.6770438036599948,0.025366216876690283,0.987238147417273,0.9399039566710243,0.7611838285886299,0.10544748086186212,0.6818994053695597,0.030935896472227165,0.7120003149641696,0.15367549224063956,0.8638161553641909,0.23497983359735755,0.8344347363540823,0.4899743186487326,0.9710372617754827,0.9437471998276741,0.9527905171372324,0.8732386788886735,0.6640346235381931,0.1090492050796478,0.5455741967020952,0.05307882478209687,0.7862126365182621,0.5012679603803198,0.7494891989146429,0.1845906169431841,0.8084840601237426,0.3660707716701141,0.6426116838487973,0.8856697988177868,0.3399033655183995,0.9583170522503633,0.6859166657575297,0.8849592553972115,0.4314745009637398,0.9599824357697317,0.5884307811244139,0.8867029831616835,0.5532334757181339,0.7544467816603087,0.23009801029012475,0.6401781030597301,0.06957595823833505,0.7644864141622068,0.21836280098497876,0.9705615283285371,0.8778956041069294,0.7040092680116191,0.10953646012504811,0.797976877841881,0.38409328717971764,0.9701996413900452,0.9348043822564527,0.9450730528999223,0.8540481242985102,0.6490416606042969,0.09046593439357717,0.7568113789042086,0.3823000260925663,0.7385970906378218,0.16122988272590208,0.8291883326810847,0.43196057873589744
19,3.3296394853498916,0.6703677593702267,0.8894965634294553,0.3551248063480393,0.6690975716230614,0.02391036535463399,0.9757325670479785,0.6676665664612932,0.7596057633338303,0.14285365259268426,0.6980994040933746,0.047212504215448176,0.8997492143907715,0.4890807526427904,0.929257502622567,0.6003729405677093,0.8647600389517249,0.059845288286823076,0.8955736890086637,0.6540650789352025,0.9736393672525426,0.572941180133928,0.8387040957917493,0.4108160888318583,0.6691131936598296,0.10172266025514545,0.8176867099880222,0.3878445029982127,0.6907591117206514,0.018566742850280194,0.984054610030653,0.9136667905328362,0.7640587372065021,0.09359946218707571,0.6797564244026868,0.024431183042068746,0.7314368893066638,0.1603285066462825,0.8917966351712315,0.2688595428174734,0.8438197221065857,0.5234956970089533,0.9768737129700116,0.9526070933788922,0.9561608249562915,0.8641007967741551,0.6677441693476754,0.10426185855559715,0.6103747204956708,0.05184804062421774,0.7721766531391739,0.4866358524226223,0.7804737761142561,0.2131284961244153,0.816538525698524,0.35342255579187076,0.6182042470702265,0.8576647360618371,0.30615504115932946,0.9560401825069691,0.5699213057317697,0.8468483545531396,0.34527926258054764,0.9229311590079702,0.5625702557401456,0.8730815180399557,0.5535069673313194,0.809780740460134,0.2831645749985735,0.640125645749489,0.05038037121618446,0.7691675733694054,0.23378962490954464,0.9645788554292952,0.8265781229883999,0.7052212055716933,0.11199083089756094,0.8049302708012172,0.4136203927709049,0.9749668817300752,0.9430634597116262,0.9439773024576531,0.8370351468472537,0.6426086619137688,0.08398911601168722,0.746946912770883,0.37576414130806474,0.761424916076091,0.19206032382369947,0.8262684322812236,0.4180543086266632
20,3.2930848800453902,0.6717776994477734,0.8583473553301153,0.28969824263979177,0.620192565592814,0.021719720888388267,0.9069989048003931,0.583961211980789,0.7602328317994458,0.16470573682905348,0.7083532484933444,0.04883378150116589,0.8830738385442782,0.45664004081597875,0.9400593936456828,0.5346535090239247,0.7924409857242806,0.046119169926720376,0.8964985845077579,0.5813146857158265,0.9704688318141248,0.5652623577075585,0.8179004517639901,0.4172698604864373,0.6510698536048082,0.11869976244988965,0.7785711824234375,0.3263155066916777,0.6667974127133356,0.01624858425922638,0.9878219956169491,0.9402351161887162,0.6853158327599552,0.09720445441422787,0.5948194783431796,0.02060474308335255,0.6994828125522298,0.13987454210745826,0.8537565532432325,0.24726235322828988,0.8640420454435441,0.4958071719916659,0.9692078531338872,0.944504607537213,0.9415384123301294,0.8370579039746143,0.6841448400979628,0.10414809409741303,0.5854309599680848,0.055026649780970105,0.7862581127655766,0.4936308606126325,0.7831667285989856,0.18250649268409225,0.7956150409850586,0.33574250617757984,0.6234910564807472,0.8138567196702162,0.2158953521924793,0.8831523551976366,0.48087317805333063,0.8369078729987082,0.3214811514296199,0.9380937958913123,0.5108810499965513,0.8735189607844965,0.485452645637382,0.7904124703556082,0.3022646227477647,0.6073385678734645,0.04095916532381297,0.713610465800153,0.1640371525664201,0.9693239056327296,0.8640975706967876,0.6549298626194181,0.07135482069901428,0.8217412810878075,0.37414846313087885,0.9691457063937275,0.9385044799587041,0.9263559725797004,0.8092258538283252,0.658542121344391,0.08008859831992633,0.7602740862038282,0.3743402435199723,0.7621672510257367,0.1728250708563821,0.8112107122161833,0.3879018386848344
21,3.2608108129166307,0.6338268123604747,0.8566098479912814,0.3266007923842387,0.6841445187640582,0.02168567922964236,0.9831205275982875,0.776681825620545,0.7969786339263563,0.20937594143917898,0.5607132301404336,0.017446616833167755,0.89932826968317,0.4736508235255129,0.9421003255104776,0.6616730505484254,0.8487151523525658,0.06241609474806272,0.8684357743546046,0.5829910214038071,0.9443721048183233,0.5518116730764784,0.8677892398993199,0.45917358275848785,0.6453223558527991,0.11269910067267269,0.8428849135326155,0.37200562246745317,0.6638059292702534,0.013331960319693246,0.9890942672803837,0.9497857881949159,0.7087077088887934,0.08409260306977633,0.6076277795051992,0.023933455068275156,0.6833289039996128,0.1329341768624446,0.8619367699238529,0.31050848622264393,0.8614395672719567,0.49412850149533294,0.9712082349965945,0.9443859506511793,0.9544651653327244,0.8741597541258035,0.6541729238546237,0.07074522810595865,0.5663424457490716,0.042930996565114066,0.7303527243972309,0.46440021860614866,0.7318038425156701,0.20331009458127597,0.7971077368234716,0.355263809176009,0.5655123799453696,0.8017226379451932,0.25193198341904227,0.9616142693764741,0.678802486531354,0.8581827492343848,0.3177947104374422,0.9367062035646228,0.5955638189419292,0.8463113464195013,0.4719288924137847,0.8280839916515625,0.31531821138278227,0.6267460940286794,0.06255785773348146,0.7724658883726401,0.16822101528892242,0.9682332895321825,0.8587014911963788,0.6524196931638955,0.07683227189989258,0.8140661065266774,0.3506959006929945,0.9695778236535677,0.9343100167262728,0.9353885353988376,0.8386457726223164,0.6290622241621806,0.06166412433433321,0.7095410025423697,0.34074985346034903,0.715382842223051,0.1877918361492284,0.8140940436122388,0.40696939020190653
22,3.214097452197312,0.6824403712842204,0.8805025901238741,0.3634958834134502,0.6530931955316976,0.021901148764602592,0.9637823924313369,0.6641310887930755,0.8208009384257812,0.1767857110916377,0.6834718246227378,0.06523259387195164,0.9257444245674142,0.4552172484634789,0.945318972023145,0.5487043144178732,0.8634351100671348,0.0653031268649617,0.8722675574328113,0.573513224210801,0.9850462064216556,0.663581137159351,0.8639828376954574,0.45529234413454456,0.6502072967364854,0.11885389120329441,0.83673683110838,0.33791161379322776,0.6412539948431953,0.013811421062525905,0.9906190244271426,0.9583861813488339,0.7168311097015567,0.10027350147167187,0.5731239148200837,0.02062515995461464,0.657658999993084,0.12413042768442917,0.835713531076825,0.2723045031667762,0.865063497902945,0.49812511535673387,0.9480648265229908,0.9153820230121907,0.9289628899374361,0.8126051973700887,0.6336426159891569,0.07718226860809115,0.584576255430018,0.06473130391758958,0.7677835141143472,0.4581106000864231,0.7122824248665149,0.1546340670537969,0.7999987221851234,0.34539327293369293,0.6207595382853115,0.8312779664416252,0.31323897410618845,0.9388911391198684,0.5490540767753739,0.8648311927576594,0.28609708201271317,0.9393628273967534,0.5041610385106572,0.8408475222232521,0.45776996595672403,0.8196190574812008,0.3070000458058399,0.6106555485146188,0.036580794018976015,0.744098100335235,0.15562411708753343,0.9692760764229381,0.8754819682480316,0.6210893730517395,0.06024704894636345,0.8129594541149792,0.3569231647404937,0.9498365881415344,0.9071754471596823,0.9105762894227868,0.7742077707600272,0.6090993743634511,0.06207622778962962,0.7359560602642519,0.33648352021424405,0.6931524058187243,0.14101209406561066,0.8057205609919137,0.38269583351238057
23,3.1780850764321547,0.736958054282693,0.9202541026441602,0.45686289055254836,0.7872022102891558,0.043785090798509486,0.989138106597095,0.8002367318590928,0.8719814563306647,0.291394154419661,0.6755819730504958,0.08199289058170944,0.9578130303984695,0.706382222794252,0.9359415795657318,0.6583961597771557,0.8856262981166753,0.10923793308997636,0.8850461677057087,0.7001036913708469,0.9757871246838191,0.6902445230475026,0.8487652049864375,0.5210895407282096,0.6759487002600649,0.15786822949813445,0.9190984749499596,0.5686047990672537,0.7126430298136159,0.03555873495806082,0.991282752362444,0.9598755730155776,0.8815129923884063,0.22960775690500418,0.7023087400493645,0.048388610476918566,0.7411646318867074,0.21030823079436028,0.8751990890244388,0.3037283189840126,0.8406885483258519,0.5015790269477463,0.9789486133953573,0.9594262617952678,0.9584164309485141,0.8890600167783178,0.6736565042167285,0.1361241491007123,0.6096956296358317,0.10560210990346147,0.7442500186500358,0.5179929265384117,0.719337750271471,0.2013343967202168,0.8368188138672003,0.41864557578857386,0.6563573883161512,0.8601317454853931,0.34804272263257924,0.9704441757403922,0.6216287649248238,0.9071524407426003,0.48258485321569705,0.929428654722325,0.6070031613609008,0.8444596335421712,0.5846412402973178,0.8064447735261858,0.3485746657974716,0.6178228957274571,0.04427622585341431,0.8297495294947951,0.26108861728931504,0.9680068069727039,0.8606599666973761,0.7175045404096458,0.13001849269020846,0.7922908295492387,0.3539671171064918,0.9759700560948438,0.950919903401664,0.9470669632924775,0.8673255399824159,0.6495384839225956,0.09120280301439049,0.7127213390171788,0.3585834813570761,0.7013941812756435,0.17913903848017804,0.826882940594728,0.44310353713133255
24,3.137167760956345,0.7431559158735753,0.8779434037139587,0.38099384696282435,0.6353614818870605,0.039512225509713186,0.9282636079802339,0.6475233516089935,0.7850259389204903,0.16158985908578977,0.765666686370712,0.058555871512975186,0.9583804590363816,0.6151394041440463,0.9523261933113023,0.49930622651166523,0.7963410929731176,0.03880445904021796,0.8791889093129324,0.5722972976872833,0.9733103061879598,0.5197251721014691,0.8146980157388918,0.4404136182343189,0.6977265310573748,0.20190547720666835,0.7932841681654057,0.4421607104314283,0.6614376498330806,0.034613678323505336,0.9896716485165854,0.9505997906144741,0.7270297583211491,0.11780018406398145,0.6801814984907228,0.05596002869908881,0.7484416405685377,0.2231960457919801,0.8625175915959017,0.30000698972148454,0.8833724615091697,0.5970200413093323,0.9660806762133695,0.946993741444315,0.9284663600316895,0.8368578909460685,0.6546853969755903,0.11847136159230832,0.6695965164156463,0.08555186063971394,0.8235916798460252,0.5578413198390081,0.8045734529636498,0.268695532279315,0.8175831971514207,0.37352061481930654,0.6586483390607102,0.8155273207234212,0.2756496825759186,0.8959105692025446,0.5256633365662758,0.9195353098435012,0.36585418120597235,0.9449728171547307,0.4473160445946296,0.8526481758613028,0.44787179416484635,0.7764570359901022,0.2957759488417037,0.6437653437632456,0.06338048200268472,0.6993835646650591,0.19646263084161536,0.9652082715519424,0.8469803539388779,0.6903191695564206,0.09070955004572037,0.8159113051144905,0.4213764712214247,0.9662786433595402,0.9400585410709815,0.9173183212574021,0.8107022576758101,0.6177850526213685,0.08695007651184629,0.7684481125199907,0.39821984447089687,0.7666604998135026,0.2143446459926321,0.8160080945624103,0.40170724010761477
25,3.0879733148997714,0.7158383268711079,0.8448851366579482,0.24417744478493647,0.5892779518616077,0.04053148402184775,0.9208768086731984,0.5079781272907894,0.8115701981225336,0.16803492702564177,0.7414112177944419,0.05726653448667354,0.9209657932408402,0.4564320793063084,0.9384190690965238,0.45527617212612936,0.7699769053117782,0.0483183854938309,0.8600441770729226,0.5962740154800374,0.9727349840109778,0.4489989589529698,0.8041204599299161,0.4368133744622922,0.6947492487197315,0.18200618637748137,0.7919696187048428,0.3528762608186725,0.627084180349299,0.01627932475920437,0.9916868649940379,0.9624869484476443,0.6635359776812593,0.12058582470629561,0.6406325481056301,0.04785158125549294,0.7148033663992882,0.19373136665811225,0.864610343659052,0.3238555823968102,0.8735808600561293,0.528804710096538,0.9580436153748402,0.9291687135831147,0.93804609291634,0.8556239658794739,0.6598022824285557,0.11124814488280521,0.6532752797505885,0.0714245803167027,0.771126063052041,0.5160976103250081,0.7314542240451015,0.18245601902446956,0.7980262795388241,0.3405614739599724,0.6249889858137281,0.7876149486813254,0.18372099343431691,0.8820018584260559,0.40803644805230294,0.8716359061722673,0.2835492943569333,0.9346976971090654,0.4104139806289672,0.8278254869135867,0.46827266351262714,0.764307300229487,0.292384396745095,0.642987716596234,0.05711112612612149,0.6737568370287597,0.1270501921778046,0.964608706792964,0.8500595902658182,0.6529975333096134,0.0864260773422402,0.8119305283660407,0.35060907282654213,0.9569760622770367,0.9215305357605584,0.9254743306935221,0.8333926402590416,0.6412456472185848,0.08200682231561361,0.7202153492183152,0.3424070446480153,0.7059356956359567,0.1513963681116736,0.797763225291801,0.3655229529102295
26,3.051971793833049,0.7148102455645635,0.8714886088286122,0.38525589611684463,0.7601120520784006,0.0640840986918371,0.9808178639646356,0.7818713500061526,0.8353386561933918,0.2429650752776366,0.7302352944488075,0.06678232937960576,0.9443527848021588,0.6985806400845639,0.9543565085495433,0.7486910558036106,0.8959862287229492,0.09500322107878754,0.9012342078186893,0.6763478736537664,0.9829260998969203,0.6706606974211579,0.861702700701268,0.551042120431301,0.6826345148935673,0.20463001521176116,0.9092828651874918,0.5495790098442035,0.7591145865561193,0.02531063178496743,0.9899434088927392,0.9391953861223366,0.8021340414552335,0.1286727651500531,0.6412962448303472,0.06524166779134341,0.7328213412574822,0.20536597476353297,0.90602619303911,0.3511873123984649,0.8796531119135749,0.571838757560398,0.9724586817087594,0.9517892309136098,0.9378700975325881,0.847435287592749,0.6453059468021675,0.11721501897889161,0.6104550625991194,0.0876429114286859,0.7918527878073527,0.5609348054921769,0.7664916887767814,0.2340442676651791,0.8363804453560697,0.416206438486293,0.6205833113049608,0.8051952874089694,0.2722353971112242,0.9292553191489362,0.6256983617045041,0.8824013640180173,0.4366389988044874,0.9395643581235017,0.6202196336566417,0.8578919298149236,0.5049279518014977,0.7989617867936999,0.31138340034752376,0.5957270373370152,0.047110450048594404,0.8244107657472212,0.21136694143010415,0.9614287585595852,0.8094329956006723,0.6778164479658434,0.08493136967362926,0.8080188578600326,0.3714661196815399,0.9697199360381276,0.9428567102548763,0.9232450966009268,0.8237234583484916,0.6298251127600756,0.08505002863149835,0.7374165705357916,0.3810961082916219,0.7366736292428199,0.19253623109022108,0.8173470161222179,0.42004213477982044
27,3.009741156155292,0.775026436376454,0.9021733730206452,0.4509261360546817,0.7017396385181129,0.029002541605543115,0.9804314479987248,0.7768055170831659,0.8163830577376412,0.2504855782146923,0.6897198366253163,0.0870837741621281,0.9409551622747518,0.6861433217147692,0.9526413473130892,0.7192521525847387,0.874668383963996,0.08897339875466177,0.8956864657143667,0.7039132091987484,0.9721730289849483,0.7013085564653383,0.844731178263585,0.535065045713344,0.6746938156847933,0.22597884515023603,0.8817776978933981,0.49522747075380624,0.7374048373084516,0.06018319048686868,0.9954648206828535,0.9794755190416276,0.846966516513288,0.1679706427318545,0.6758682402406039,0.06969048160799775,0.6899659886244048,0.2418957369061183,0.856352409998804,0.3525935615721848,0.8621389800535049,0.5957684654871185,0.9731506890671883,0.9553068540443432,0.9427490956035434,0.8601973020655148,0.6271718591055184,0.12793625727094168,0.616778971177809,0.09441946320269648,0.7618272297982812,0.5386186573020656,0.6844191576657552,0.21199029922874946,0.8230012780705144,0.4233158453232282,0.6699268658031544,0.8276665519325472,0.29742966792215125,0.9477815038955468,0.6225654384471301,0.8581684453541711,0.3878538582658421,0.942669835542766,0.6159802759228318,0.8577881485470867,0.5451042952214004,0.7899638516195988,0.33012181059688744,0.6200689079227325,0.05204749963266588,0.7675061018643768,0.1888741692083293,0.9667530496986185,0.8590785618037708,0.6494982980101853,0.08864488596887649,0.7807622318525388,0.35763907899689085,0.9697295623051551,0.9348092855970545,0.9344222677908552,0.8306111124744577,0.5962391968572676,0.08966684013247857,0.71511577892023,0.3621888336085647,0.6616814621409922,0.15392373465971954,0.8053634496409168,0.4197837092786907
28,2.9658415531554665,0.6769768534837269,0.8604412604939482,0.3664420288986463,0.6468765838648337,0.03785310951102646,0.9575789981532307,0.49047104710349837,0.784137522122959,0.1397920712678932,0.6275120546533919,0.03670857892393166,0.9148551822558183,0.44117372403351074,0.9266851324117555,0.526584771482272,0.800793564631132,0.044242917296838706,0.8266571686602485,0.5597037203759627,0.9756104491400913,0.6736593602442207,0.7932738339786084,0.39751809367784996,0.6653926484008345,0.1306682282632923,0.8386897925900024,0.2926008004917881,0.6365536505829055,0.01326088138391565,0.9967710267852917,0.9863949845932833,0.7205886621656489,0.1152094899198009,0.5814367438136147,0.03902695083452744,0.7053120090391547,0.14378937660375485,0.8532144280987122,0.26344421967198517,0.8575026435049379,0.5430395451923697,0.9426945716383416,0.9074142872792715,0.897345973989893,0.7430400877404139,0.5898263386217335,0.0787830990149992,0.5663957916744649,0.05055829829102253,0.7518524148066366,0.47623401247997277,0.7036982748715234,0.1787011847503442,0.7854498738826814,0.3337044180510151,0.5841043263723676,0.7884535015136773,0.2521931952193038,0.9029961163660624,0.37151219840574623,0.856213641324482,0.25160977656639044,0.9121365702780037,0.44124283433172035,0.7819841278016242,0.4283055948223494,0.744419874367092,0.24987798409216083,0.5951399351207987,0.03251619560936624,0.7390879550667531,0.09988598513800527,0.9666413524549311,0.8773242626645146,0.6294199294776139,0.06268575494523482,0.7787781063803683,0.3264279436614898,0.9438297975163623,0.8911963301222668,0.8872670307112303,0.7241859561552803,0.5652025801445268,0.057388700448491786,0.7020393532572573,0.30314852046990926,0.680061767997016,0.13406070390503994,0.7796044774861124,0.34397262103482934
29,2.9116215314810208,0.7112266478674656,0.8441495271988642,0.3449983676597195,0.783197922524269,0.11575000033492282,0.9840478866631799,0.7928117227216332,0.8186938224270928,0.2897915325665015,0.6173499748069707,0.03886877176338408,0.9315665847368572,0.688191713499975,0.9210136859093951,0.6214709032648006,0.888088963897278,0.10120706504356938,0.8809681890512133,0.7165395508480785,0.9831405853819128,0.7896120800813113,0.8601893412167954,0.5539429697353923,0.7120899087766918,0.2669956270422932,0.8791678607003434,0.4682812951436642,0.790925477489035,0.03770676103521937,0.9949958685936688,0.9703270273721403,0.8134882708351252,0.13786183426617066,0.6869954515311527,0.10593448681681611,0.7589983073197327,0.26771656922990317,0.8819421022206275,0.3095387609198139,0.8974140981910143,0.6172806166297984,0.9444492229144081,0.9173174680616727,0.9230613035019604,0.8187678245669501,0.6379192062660693,0.12011814631603268,0.5971956604182468,0.07996195882295092,0.817141016650752,0.6084966606853233,0.7588645235852383,0.1975368111597616,0.8310405678003037,0.42219332790722297,0.6024319323288395,0.7722982147551691,0.2080650488588423,0.9479552846012723,0.640436027658312,0.8604461594796822,0.4099764657630148,0.9069871088343,0.5216753301878269,0.8338884956727421,0.546249916799047,0.7947830622013645,0.31468399210147513,0.6058542358228873,0.04930885112694715,0.7604446641769099,0.1646190930125784,0.9608476264790549,0.8240147968945785,0.6792200585208354,0.11115106042325934,0.8090934099220372,0.3544442526378596,0.9443155437311097,0.9106319608552205,0.9179425631682867,0.8035606751423328,0.613304427954799,0.08366111867701931,0.7428268657361482,0.37535569698967736,0.7259408429690415,0.1493304586924311,0.8047592852516026,0.4041977966137763
