epoch,train_loss,train_accuracy,train_1st degree av block_rocauc,train_1st degree av block_prauc,train_abnormal QRS_rocauc,train_abnormal QRS_prauc,train_anterior myocardial infarction_rocauc,train_anterior myocardial infarction_prauc,train_atrial fibrillation_rocauc,train_atrial fibrillation_prauc,train_complete right bundle branch block_rocauc,train_complete right bundle branch block_prauc,train_incomplete right bundle branch block_rocauc,train_incomplete right bundle branch block_prauc,train_left anterior fascicular block_rocauc,train_left anterior fascicular block_prauc,train_left atrial enlargement_rocauc,train_left atrial enlargement_prauc,train_left axis deviation_rocauc,train_left axis deviation_prauc,train_left bundle branch block_rocauc,train_left bundle branch block_prauc,train_left ventricular hypertrophy_rocauc,train_left ventricular hypertrophy_prauc,train_myocardial infarction_rocauc,train_myocardial infarction_prauc,train_myocardial ischemia_rocauc,train_myocardial ischemia_prauc,train_nonspecific intraventricular conduction disorder_rocauc,train_nonspecific intraventricular conduction disorder_prauc,train_nonspecific st t abnormality_rocauc,train_nonspecific st t abnormality_prauc,train_premature atrial contraction_rocauc,train_premature atrial contraction_prauc,train_qwave abnormal_rocauc,train_qwave abnormal_prauc,train_right axis deviation_rocauc,train_right axis deviation_prauc,train_s t changes_rocauc,train_s t changes_prauc,train_sinus arrhythmia_rocauc,train_sinus arrhythmia_prauc,train_sinus bradycardia_rocauc,train_sinus bradycardia_prauc,train_sinus rhythm_rocauc,train_sinus rhythm_prauc,train_sinus tachycardia_rocauc,train_sinus tachycardia_prauc,train_st depression_rocauc,train_st depression_prauc,train_t wave abnormal_rocauc,train_t wave abnormal_prauc,train_ventricular ectopics_rocauc,train_ventricular ectopics_prauc,train_mean_rocaucs,train_mean_praucs,valid_accuracy,valid_abnormal QRS_rocauc,valid_abnormal QRS_prauc,valid_atrial fibrillation_rocauc,valid_atrial fibrillation_prauc,valid_incomplete right bundle branch block_rocauc,valid_incomplete right bundle branch block_prauc,valid_left anterior fascicular block_rocauc,valid_left anterior fascicular block_prauc,valid_left axis deviation_rocauc,valid_left axis deviation_prauc,valid_left ventricular hypertrophy_rocauc,valid_left ventricular hypertrophy_prauc,valid_myocardial infarction_rocauc,valid_myocardial infarction_prauc,valid_myocardial ischemia_rocauc,valid_myocardial ischemia_prauc,valid_sinus rhythm_rocauc,valid_sinus rhythm_prauc,valid_st depression_rocauc,valid_st depression_prauc,valid_t wave abnormal_rocauc,valid_t wave abnormal_prauc,valid_ventricular ectopics_rocauc,valid_ventricular ectopics_prauc,valid_mean_rocaucs,valid_mean_praucs
0,5.662940656508247,0.03618044424089764,0.5199553135968387,0.04741819245110152,0.47755479454137384,0.1579333315744261,0.563158760531445,0.018716294958277264,0.6346353729793013,0.11735114984430425,0.49424286982409316,0.07273498980982024,0.48068639352877957,0.046325059600483914,0.686261860707477,0.1311524768862857,0.6995180523983084,0.050225457899674406,0.6089555000194666,0.29406540665854397,0.8711987758571118,0.10555768351398044,0.7813877928452285,0.29493628688116813,0.587077062912126,0.3196739667729823,0.6954918345895165,0.20000386411662255,0.5849219842015247,0.05136000360371928,0.5854266579989942,0.024516468561513828,0.45319310231901777,0.016857272021325746,0.5304478243932991,0.02927621922415266,0.6319033434958743,0.03422567849622133,0.5570550882360116,0.05268028385505385,0.505618797275588,0.03515664723824098,0.46449925061611663,0.024895594241961774,0.6947276905617936,0.8943544946141064,0.5467759062192163,0.06487833644978366,0.6150163215774076,0.07125054442630244,0.5156973165233392,0.11271961212546375,0.5583623522655548,0.06733911797376618,0.5901450007698001,0.12829247822304934,0.048534798534798536,0.4755677904947132,0.14904335622177278,0.6597752042179379,0.12092026905124023,0.4735950312328321,0.04926878153020259,0.7055640965913502,0.12483723358852772,0.6070023165117437,0.28707440125127787,0.7835561680029154,0.27616275658082123,0.591170494427683,0.3097734088455254,0.6888845318182346,0.2037900266761694,0.7116828827691513,0.9092586279419272,0.5914386111464216,0.07470062939472398,0.5443652292707748,0.12216052632450249,0.5873849774321356,0.07445078259438263,0.6183322778263244,0.22512006666675613
1,5.360581198572866,0.5319441264025647,0.6275273245683509,0.04731896068465607,0.4351260820670396,0.1516959803843262,0.6305530650946736,0.022171841577802925,0.6919992111734954,0.10992770838326306,0.7453058878509062,0.309575900718704,0.6198115554273926,0.08594555415120848,0.8717664540707194,0.3395380223113815,0.7365388034491955,0.04185106355239447,0.6256501116996135,0.2990333659708085,0.8913038041082963,0.10383176895255401,0.7547228563317729,0.2005444609174133,0.7498558619945115,0.44328227162701667,0.848139863115106,0.2780619953579456,0.5521767486255734,0.03841196925996918,0.6225281460857146,0.023841714381065676,0.5635976836071331,0.022668129575777587,0.6197087320242967,0.034106250030129084,0.6118255508355757,0.02579829054029212,0.7354622186266854,0.07613770160713887,0.5329760016000832,0.03587677417179269,0.6170899454129103,0.0392885067174589,0.7958716602075183,0.9496163942317677,0.3921305066136114,0.03524529546051039,0.7567000444828499,0.09163471671997946,0.7250416412790781,0.19928652280929354,0.7982490172682621,0.13083948229658307,0.6750637991392446,0.15905887086120127,0.5425824175824175,0.42937605236809806,0.13887699414978533,0.6866662227900145,0.10668483662521847,0.5870632998962297,0.08920163037770483,0.8502826306390248,0.29246768533433093,0.6331091106354279,0.3025107509770455,0.7549386160714285,0.18383347858212082,0.7446935645476375,0.4288769171938113,0.8461387639861968,0.28145097553030596,0.8048792584176451,0.9542772448956048,0.74431658252674,0.09222242981447143,0.7246704258537678,0.1980486810919046,0.7930824567155612,0.12364532705302204,0.7166014153706476,0.2660080793021105
2,5.062275981932194,0.42561636516296464,0.6970351905424895,0.06470218730585583,0.511288681086843,0.17024726382541971,0.6477282842690779,0.02429108537016408,0.7846663370966187,0.19805272882099154,0.7838253518707508,0.24315408486765291,0.6852254229047662,0.0843976667767952,0.9474683499610548,0.6096675601214433,0.7242940642342811,0.04373934390662333,0.66207950155234,0.3254606697520186,0.8074316072576118,0.060243095851611334,0.7359218081132908,0.2768779305915487,0.7839939684070778,0.46030759516083064,0.7658490498934374,0.1802227532881457,0.6390798262881057,0.052143370920714645,0.7168313320004742,0.034723918005669964,0.5691796129429014,0.023199344136977544,0.6693031508918393,0.04747135548281446,0.6725794855884827,0.024517413798987177,0.6507265925037066,0.04852512073565114,0.482617513223107,0.031124144291064124,0.5566033871904545,0.037245501875699805,0.8007080431115161,0.9533949248962879,0.6007531013536767,0.06050390828147901,0.7191727802587531,0.08838453111092681,0.6063963201869992,0.12723652253242856,0.8137353511162894,0.12580971165798294,0.6936343889940748,0.16906322051406864,0.48946886446886445,0.5044317160872774,0.1527794272373541,0.7848094312691682,0.19659901537586083,0.6460460455368588,0.07856692586234076,0.9326554856743535,0.564760475587563,0.6684766736064276,0.3200490144631045,0.7492512071793004,0.284738718462716,0.7788694157883247,0.4546738249875565,0.7640501005030964,0.182657796123546,0.805471769854581,0.9559328024744193,0.7184514999909202,0.08771166850381246,0.6126558684524188,0.12777903103127564,0.8133920026311301,0.14059122757759424,0.7315467680478215,0.2955699939739286
3,5.034307741407274,0.2506678879474849,0.3707493309545049,0.02703720648605006,0.3060340996902516,0.10820122483954403,0.6110020174513457,0.023709124568556103,0.42109713809460925,0.05842158914299932,0.8037982985672887,0.2482851592773332,0.7459279300204317,0.1365576686445633,0.9374655237054854,0.5161278079143179,0.503709377341478,0.020453182050799764,0.27200545128863995,0.16187112365616987,0.8591059484764009,0.08160562870882535,0.5402156536391649,0.19108597229154634,0.6545801510375459,0.38136142889151065,0.7367124376628407,0.23943358794021427,0.4160923825262275,0.02892997059564961,0.34482259891163475,0.012028479020990121,0.44354026751262754,0.01639563764954196,0.457343567700924,0.02243907184109445,0.3098953516815923,0.011931165041386617,0.5340400601617523,0.0372243398712636,0.5441756938260849,0.03703749014172381,0.5352622061482821,0.03122764869911957,0.8007823250091863,0.9526787766448314,0.35280481394912677,0.02810392358122739,0.3790831829293368,0.03307769500359529,0.6103140773177474,0.12842098001304525,0.8176866446479345,0.14091189578872942,0.5503171742404787,0.1413291453194088,0.3500457875457875,0.31411689483823085,0.10237771722985922,0.3996017594160803,0.055008823549634676,0.7107071642216208,0.12618545818805132,0.9200186349871885,0.4540026545947081,0.2805781016332874,0.15991746087984599,0.5131491435860058,0.13611980233551157,0.6542534046828732,0.3854337409179545,0.7477799272659672,0.2602058270707589,0.8081750798030622,0.9558410294152595,0.4097996531497994,0.03765981450662132,0.6199796461865638,0.13213797086078843,0.8200755428493217,0.171054116302458,0.5998529127183335,0.24799536798762098
4,4.8537115237429145,0.3598961911304481,0.2914665643992764,0.023170522701580275,0.3239789400618802,0.11370024083252372,0.5650070820874106,0.022794850990291993,0.543900515057306,0.08466186096953822,0.8810214483984403,0.377970613358133,0.8111392396965559,0.21531475013483675,0.9385161320730082,0.48312667850807034,0.3762112187750022,0.014558674880515649,0.5150758119096274,0.26608679597780127,0.8167335655076876,0.06458921569515347,0.49731598284820655,0.12655114115594973,0.6626706267663633,0.4044777400269629,0.8346725339775388,0.3581368382196038,0.4213911218072287,0.030925775805330756,0.4154872976350611,0.014876549605554353,0.4560096908018004,0.01819676514911877,0.4612053244935487,0.02388490027602583,0.5554210245273226,0.022142081416639092,0.714346459381962,0.10425359744639509,0.5270029154539703,0.03680731473654138,0.5470265657718655,0.03853121824262992,0.8236741828280716,0.9582139792161285,0.4107292968444155,0.03295450080961498,0.5791360651089158,0.06907775420361419,0.7225789294946777,0.22443592530272743,0.8663109382818257,0.22320664695894615,0.5983857489995758,0.1674094974084703,0.42857142857142855,0.3330343357257254,0.10576764741171565,0.5216111057938387,0.08165988349023741,0.8054591328056647,0.23281266803439762,0.940958148924606,0.45678141944030304,0.5287046594141278,0.27594313675479876,0.47397218932215746,0.101624051851859,0.6693570145143324,0.40552849265930446,0.8515935259739505,0.40935447014729875,0.828963326660535,0.9605793692855964,0.6007193509724518,0.07821993248381426,0.7242290578341439,0.23026654839265803,0.8516434859613481,0.20423931293077355,0.6775204444919068,0.2952314110735631
5,4.687687196564869,0.36966643767651325,0.3998093324551677,0.02724781017150528,0.33842263739194534,0.11314647490147543,0.629082348048456,0.02467844328230209,0.7384962950139741,0.15307191834734432,0.8414920564469324,0.27651783581473777,0.8084182726943473,0.19542885533115634,0.9578161649666163,0.6486070872924403,0.6498428431733614,0.026416875349627347,0.6938188751271361,0.3890946197410428,0.9146051729095068,0.14080591689684918,0.6329361779835725,0.1600366161531376,0.7362672385292847,0.48716665296365236,0.8559813706403506,0.40407735564911407,0.4327999239118805,0.03252691345705641,0.47350755218661117,0.017759389527482898,0.5186219512347554,0.031569087831172564,0.4871568361616443,0.02507510735214267,0.5604985039586179,0.018505798759841034,0.6951775028996534,0.08178747437518975,0.5402522693349904,0.03735636903532355,0.6248775896554152,0.06635778407547699,0.84970520704125,0.9641551080526177,0.4526979455409639,0.036835324146401414,0.5932607810435865,0.06175757754481626,0.7726923391273978,0.3154271377761546,0.9018958392908039,0.3290487663098895,0.6576974241064701,0.19478685769761347,0.4990842490842491,0.3444933522202782,0.10692607204881133,0.7291381441239748,0.1447193132946913,0.7815838199686655,0.17687963832148063,0.9514729404456869,0.5918246540744679,0.6982148198105739,0.38984634302380716,0.6315307261297376,0.13621191646599556,0.7350153371657591,0.46996627416591397,0.87113179267315,0.44645473717619505,0.8540370430485671,0.9654393146872693,0.6049914195434652,0.0720035474950015,0.7729703569937196,0.30917488395089987,0.8848155400098259,0.2568623689715648,0.7382829410111169,0.3388590886396748
6,4.574191938874448,0.4332493702770781,0.3671789206899714,0.026405704147876057,0.3497683076686513,0.11468399698915807,0.6059448587036327,0.023624518331774903,0.7690621620271056,0.16680499509559313,0.89323036706475,0.4172777004915209,0.8388924880027715,0.28653670199767944,0.857485857637188,0.23741839988018168,0.5718171773998959,0.021392540401336403,0.5436874997787887,0.28733951075095365,0.9172912661523862,0.14602021767128176,0.7232348477813125,0.2649110702183962,0.7247302649747704,0.4412899969986382,0.84523929170761,0.32467955590765646,0.3987446309471442,0.028577401328085728,0.6199806544637831,0.025494419427621498,0.5493120943156379,0.027253489414392366,0.6120595702062087,0.034758847168522566,0.584670647160952,0.023901997599270305,0.7418734518056045,0.10763809671656141,0.5603975331102613,0.042607594691434006,0.5924012350735531,0.04286121782008698,0.8621803838134892,0.9670621722370192,0.4874836655059793,0.05354892226191017,0.6628979434409299,0.07596225153594767,0.8314891491223189,0.38094897044058007,0.9111853018704903,0.3238534414779841,0.6700861373240456,0.18818668196159477,0.48786630036630035,0.3561384284225221,0.10837051437420425,0.7653426658399465,0.17304806046644225,0.8290790892628238,0.35095911583850875,0.8428542588710304,0.21222515951568105,0.5430129314136586,0.28687810794858104,0.7243693627004373,0.250070716213436,0.7219111563887132,0.4427137525311573,0.8492819547561784,0.345996527587934,0.8634364461036268,0.9680044882212107,0.6620298908602248,0.07421091235280067,0.8199915376808267,0.3447947370994611,0.8938375787883523,0.25929859873903277,0.7392737750906951,0.3180475575740375
7,4.423861046600283,0.4682085336997176,0.40248459736383574,0.029365955489473787,0.2884712649819237,0.10507079929559072,0.5107595031358444,0.019722464273155015,0.6772282117909931,0.13359268093478766,0.9057675552925373,0.5556924347609788,0.8439692274532808,0.4326298519917436,0.8834661011090056,0.2682184500501365,0.5221387932895623,0.019787677168755385,0.5121916838085272,0.3154213728681399,0.9494772922485673,0.27858138744110184,0.5921878903193248,0.1946412490825821,0.6163617432716484,0.3970194531172058,0.7778296723561536,0.3364411459349957,0.386504039633758,0.028255779836899354,0.4931343448343535,0.020104373847277247,0.6412258120561924,0.04631525772201795,0.46739072319087716,0.02638862209718588,0.5617721154591937,0.027144260434530377,0.7046274826664047,0.10068845266725554,0.5748574481094035,0.044270561622395094,0.6455426580755426,0.07631018962925433,0.8313398148129352,0.961143641031879,0.5687280853757647,0.0610142773393321,0.5551550381867124,0.062234559552443336,0.7752915312075084,0.4040144385640423,0.9053853132521615,0.3573698142400386,0.6382033824339235,0.2039015058074307,0.5128205128205128,0.295692460778408,0.10044755461967898,0.6840691282401261,0.1439163686675491,0.8413789244511364,0.4839400052983711,0.8824699122602686,0.2448111186256075,0.5197196727560625,0.32067859045610053,0.5792217110058309,0.16297235625631248,0.6155007528645235,0.3962351015141104,0.7879030290355189,0.3794299974426636,0.8335942713123772,0.9629773416788887,0.5782194871701746,0.06862608087155342,0.7576784484641996,0.36004534755691736,0.8910358746822165,0.28717491591891203,0.6888736394184035,0.32593789824222213
8,4.372058677396723,0.42668498587894055,0.43743520054690826,0.03182753417039273,0.3088404046406228,0.10815271456227159,0.5996096128387669,0.02437786949952127,0.8350910898298491,0.26930644069745385,0.8750798028839412,0.5247028455060951,0.7807669491608829,0.3686698050553425,0.8914646424918082,0.38038874789792404,0.548270798674168,0.020967039646691034,0.5200900675667632,0.289306441114764,0.9400571513035922,0.23656420116121285,0.6009512003207863,0.18747265759993037,0.7822189423579486,0.5952348694526761,0.8505170724125304,0.3159740178335342,0.40488713312533653,0.0288730927515572,0.5236006683375104,0.020683234326810632,0.6121138772331779,0.048632148726794125,0.49541417872684956,0.025587408802024307,0.5146524053004313,0.022696103523000707,0.7399282362922663,0.09572516045882072,0.5831783430740529,0.04595845617247793,0.7258728644823325,0.17145196120525089,0.8499623413719108,0.965431151719145,0.5916329456350409,0.11426869448768466,0.5690197108749145,0.05340883980894999,0.8110395597282081,0.4401482383302826,0.9097005487051697,0.3039291810117651,0.6654382979967604,0.2188361098277836,0.48214285714285715,0.32043675717460623,0.10294545053579368,0.8464264461709398,0.2897855798792655,0.7750147516633772,0.421179838668153,0.8937044801615033,0.33521697885043017,0.5281271442395097,0.3050216525373476,0.5857638256195336,0.14826620374499194,0.7655439935964534,0.5852679654248956,0.8489444270161618,0.3135206988468685,0.8532262379243388,0.9670103328020287,0.6095460983892349,0.06099536210531364,0.7915708663921482,0.3780415750526669,0.8926353893122598,0.27586440371669063,0.7259117014716723,0.34859300351370387
9,4.212088257308662,0.473551637279597,0.3812849008312005,0.027797936541339798,0.34055625706120823,0.11609608163978903,0.5659712999208828,0.021813782127438446,0.8395793698668276,0.2982615413298501,0.9235592371397842,0.6554940171445807,0.8527941166339261,0.49039970835004865,0.8506194196437736,0.4779835134944817,0.5620445626912869,0.025056270294093946,0.5528301042926566,0.3690886005710742,0.9386186797607234,0.23492273205665465,0.5838088555048508,0.22948949925827491,0.7437701523312098,0.5887897564954665,0.7319523879775232,0.18610890569762462,0.41591710810797033,0.030312800235422356,0.4038242697554108,0.016103715470809615,0.6488603027109996,0.04893711418616268,0.499025192240492,0.026505750234314146,0.5963540889809019,0.02983929867166462,0.6974555394825702,0.10128480355371151,0.5872748192610718,0.04818483181608656,0.680386538834386,0.07906545806687962,0.8593928738913037,0.9675179906361018,0.6774672596955428,0.2556681901680283,0.35977735728866955,0.03486948593715523,0.7761124954984441,0.36091584356855627,0.9259500094335635,0.32610900196006154,0.6536610461091222,0.2325621780579104,0.5494505494505495,0.3409839166288037,0.10671821824302796,0.8417382764547017,0.2966113872606984,0.8466518810914196,0.49989960473231504,0.864904883919559,0.42607808213586984,0.5596781808052077,0.3740006237231107,0.5628194469752186,0.16523915874649345,0.7263971374355588,0.5621056911424398,0.7341826716395367,0.18912549460643152,0.860609899787793,0.9686182926222935,0.4041633373889989,0.03886531737717279,0.7521065920360174,0.3145948711644457,0.911925576606639,0.311729644468756,0.7005134833974545,0.35446553218525456
10,4.126254317342084,0.5669032898252042,0.49729547216687364,0.041321241748627724,0.3746502136443066,0.12267518063737906,0.576448801386081,0.025129089076399255,0.84088976774235,0.32123577125435665,0.9490950696830563,0.7309595761048325,0.9091612224772357,0.5750621626235239,0.9502061721414626,0.7096109321451565,0.6118956605666535,0.03048852847927388,0.5672651275512092,0.3739594350637657,0.945544478603637,0.2265743714542089,0.6761922279406066,0.348035282515714,0.6922303712509362,0.5479679518073698,0.7645818569558127,0.22423498939423328,0.4396236525354497,0.032907051042674954,0.5552407391507589,0.023521409272444158,0.687390551936973,0.04939540704540564,0.5113883515723907,0.027985334020681554,0.6569687486948792,0.042063403881283004,0.7422751929008866,0.1250461079936717,0.6006938438794329,0.04930404606728851,0.7626116100371749,0.10319787519912232,0.863861075189359,0.9680605599600793,0.7037453864348286,0.23176161185983418,0.45164143060070666,0.04347868469844343,0.8455198486776985,0.44535606420666735,0.9242324869258367,0.3916988973858649,0.6961788215633309,0.2619627294207039,0.632554945054945,0.371530192042401,0.11267186904434273,0.8327522710532778,0.31978048079329013,0.8913158483732474,0.5674839993170652,0.9464857519993789,0.6365927102507559,0.5661279066357798,0.3558561133904862,0.6472889713921284,0.26783751751888296,0.6807785850624961,0.5166887757884453,0.7630177652294144,0.21876053790689753,0.8641553875332888,0.9688881766030252,0.4927656309586504,0.05049555689094634,0.8274743295824427,0.3823160754398602,0.909445613949075,0.326553956069764,0.732761521150965,0.39366048075114685
11,3.9894150263407275,0.5653766888023815,0.4425101086313121,0.04297163773115778,0.3899411256494357,0.1421953190984513,0.5816229267358235,0.02219118126879186,0.8714176211705329,0.32328387582141216,0.9171269485658463,0.555021306592784,0.8588343127625316,0.4425243442073968,0.9260475990047508,0.5046785631809805,0.4961896613032269,0.02038692706099377,0.564497203728962,0.3290963839751954,0.9528469073312479,0.5933347722107885,0.6021169840333974,0.2681891367900781,0.7790207025970837,0.6479489743795535,0.8356349894227703,0.2689221810168528,0.3914056091210633,0.032735422891050976,0.41090542424576937,0.013689397610057984,0.6599351030014862,0.052243718614499134,0.4589343136150378,0.029272045458580302,0.6555215561216879,0.029427008140371812,0.736925411657225,0.10580581555180538,0.5792972695378479,0.04706376696823528,0.7296955249782965,0.14200376445630192,0.8800692675143073,0.9720108805176673,0.6326024058213618,0.21539094535458603,0.37094698746282456,0.03281980763134576,0.8052790469727633,0.4007248734078275,0.9195252686086189,0.40320603484425266,0.6711096261382774,0.25527454172234687,0.5938644688644689,0.3988133296875225,0.13593961955553888,0.8659781030098999,0.31914320215452313,0.8528038333977659,0.4857283933857604,0.9271038124077957,0.43188686756097616,0.5637165352021817,0.3228547301454744,0.5648599785896502,0.1747716104515902,0.7489862917084147,0.6030141709005259,0.8335018067319648,0.2725445715004564,0.8797592532477292,0.971995122521578,0.3921983674432963,0.03641295056289033,0.7823884204500516,0.3293786334345554,0.8997259579979306,0.33919367424696917,0.7258196408228503,0.36857196220173655
12,3.9172144622604734,0.6265933898175712,0.43163330470958006,0.043394055455018954,0.3749188273257953,0.1307454882399353,0.6324692165979346,0.02559052338986343,0.8746559145925765,0.38267427492398004,0.906576696987569,0.7193690750051855,0.8394665760559332,0.5117585117205943,0.9581098344333177,0.7097913720679554,0.5234928819069632,0.024287564786655905,0.5646870914630477,0.3848091576176326,0.9356920526249853,0.3917023891897456,0.6002577892289443,0.254185096974545,0.7881945835549331,0.6157394573153292,0.8790496431666883,0.3862397123761389,0.43007484829081966,0.033566525024767056,0.6466151785118043,0.03229631113893925,0.6870019761586027,0.053251076322859574,0.5434340825636395,0.03224776387389838,0.7132986966690332,0.07259561589088939,0.815003029139554,0.17303118961257574,0.5971329827101337,0.05457291387796258,0.7276828292915452,0.09858218227640712,0.8557956324111876,0.9665534280547268,0.7282574455855744,0.2858169711615731,0.45917347908298134,0.04532600291812197,0.8874797226256804,0.4810215590970209,0.9300676005146782,0.39174430257827797,0.7050085352385964,0.2808035584957923,0.6662087912087912,0.37310625140058756,0.1180337389566875,0.8784113654616803,0.3874719139153567,0.8299448592996522,0.46365033771338754,0.9540764034474727,0.6244310282306917,0.5645752573087413,0.37549708047860997,0.5706942989249272,0.17811665760572826,0.7608280950008676,0.5763034926669259,0.877406555358035,0.38179781574269084,0.8546404503838362,0.9676916548950587,0.5047805400693701,0.0552322006233472,0.8610924135032066,0.4064267481289459,0.9117396815474641,0.3411025364322344,0.74510801430882,0.4063129337824722
13,3.825339141105679,0.5883520341958629,0.3433699884115484,0.03172214498230988,0.34956680397065226,0.123001683104599,0.5868837533567812,0.027243589254456333,0.8737136952416985,0.3178454326291217,0.8931055675993749,0.6706943125721664,0.8198326785215163,0.5111551584303736,0.889951257355285,0.5161431318890407,0.40192302807868635,0.015072361987953064,0.5288188381245276,0.34474074384279524,0.9082586833298633,0.5936254870697966,0.5188395027333301,0.2163687167788291,0.7548780454238095,0.635352772014239,0.8144821438450535,0.2576094255486532,0.3586923883007722,0.027304032079241414,0.3480697393292911,0.012262791129356401,0.6450642282794421,0.054964807901562766,0.41071319456246314,0.02051781510736652,0.6028233865723202,0.04244378328520736,0.6541857930180421,0.07868299526114382,0.5938815682238294,0.06761807229645157,0.7298901260389186,0.12204092442612076,0.867290751000339,0.969156367898054,0.6659059582286095,0.27841982540530835,0.31758167844140694,0.030730451582946645,0.8095137691777149,0.4263244523946798,0.9157565068565123,0.30676064498188377,0.6385766566931458,0.2576077663020637,0.5810439560439561,0.35453173602958865,0.10962968802622128,0.8721302334097634,0.32767414982378823,0.8187091785866888,0.4953613074769116,0.8980658436213991,0.4754484212486393,0.527692285136205,0.33133490968861207,0.48382778334548104,0.14407201641678377,0.7218868072386944,0.5758518372631021,0.8042452391741317,0.25149243751805006,0.8647717572303678,0.9688782196034683,0.3436064249005757,0.03393365483023363,0.7828143018724956,0.3417748990834616,0.8969967733929014,0.27795617198974276,0.6974398636615243,0.36111730941408465
14,3.7504603864946273,0.5923975269063431,0.4535676590494135,0.0557773660220421,0.3571471263678817,0.12245099233233564,0.6255665847959796,0.03147075517750651,0.9206909013681321,0.5513370182860893,0.9484388660425351,0.6988937079212139,0.8770504287114642,0.591958067204634,0.9571897002116324,0.6987019324892804,0.5077845014794966,0.02110455559016894,0.5375084020053483,0.38193061914910625,0.9783447392590068,0.8000653450483193,0.7487474986567916,0.4858318952811094,0.6978732686542195,0.5332533682964052,0.8198983637565893,0.34222911001470013,0.432745150656175,0.03444746138494369,0.626125536789227,0.03960926220094035,0.6998388824516866,0.07032595344672875,0.5079721086590807,0.028374513211030683,0.5911613860234235,0.043023785270556725,0.8090982954949861,0.18363143939225804,0.5996734171953418,0.07948475728972168,0.7266337741820889,0.09224102837614594,0.8673544153980143,0.9699822375612637,0.7235903172336271,0.3562009311107285,0.586543333149668,0.08080472200230662,0.8867428437181699,0.5425481097345237,0.9424511892783713,0.576001488241227,0.7088361034841675,0.3235261700782802,0.6078296703296703,0.358397871723653,0.11144462680144672,0.9057439025912686,0.5258962916792402,0.8533532056890554,0.5047572921525114,0.950669306623185,0.6435899673384708,0.5334979327331907,0.3525681556727397,0.7170348943148688,0.3883228737754201,0.6749715926583114,0.5026532625875477,0.7993557344859238,0.30690745934263164,0.8622942553818222,0.9696433555176416,0.5829977572774984,0.09298031492721269,0.8556682328409886,0.42023492235642645,0.9165525250575305,0.45340967849651254,0.7508781009481081,0.4393673500539836
15,3.6725468900711262,0.4254637050606824,0.4550308052723286,0.061334522404387026,0.40669690308058715,0.16144736586244557,0.6190712887405135,0.031387565672366564,0.9160453914328446,0.5221414511726216,0.9526942929741254,0.771872815335213,0.8894484670317341,0.5516051053875621,0.9546264867606923,0.7052884942607531,0.5714879417853016,0.02801460213261501,0.6991831111085369,0.4752059145168631,0.963028532389494,0.49668773772540015,0.7279796609811576,0.3885955923270019,0.6975392862462126,0.5854430416737892,0.7807933383211842,0.2581031193200522,0.4371718487544816,0.03172021345534955,0.5431177522381265,0.019636632863602753,0.7121958109437438,0.07560750153812441,0.5225500675013797,0.031830131618252704,0.7206278824526129,0.04143129107258861,0.7790373016899357,0.1439574652519246,0.5805024923003117,0.05320440383746434,0.7593176963680095,0.1635188113161202,0.8815507031302339,0.9728771363915062,0.76344989672776,0.30947764592183047,0.4964302848918233,0.04468969854230857,0.8620351415332659,0.5167541113364348,0.9442706037173672,0.414608494128565,0.7167647303220679,0.3021708025025055,0.521978021978022,0.4060273065750006,0.1310459749650733,0.8989800546800552,0.47897565158279687,0.8622428632469936,0.48901011923922205,0.9475782281233016,0.6059500381478781,0.6775012462246723,0.42841935502876605,0.6807170189504372,0.24902651115936764,0.6645314048060185,0.521060394004618,0.7635318995666167,0.24827485117113243,0.8764074494881182,0.9723881264332388,0.5224788666533495,0.059481919249324625,0.8207614427977644,0.392041690508515,0.9164452779080065,0.351633914829242,0.7531002549183613,0.4106090455265979
16,3.5752112051156013,0.5659873292115106,0.4982568134259298,0.09494407260513095,0.42975335235000045,0.2039470029538471,0.6375160495268994,0.030798623866039897,0.8973187483714838,0.510056935677099,0.9645795130271184,0.8051288941625047,0.9133181785077378,0.6547491565009596,0.9656970414966903,0.7577366041507483,0.5271171723200793,0.031061054168270777,0.5955161686919964,0.46714969463496026,0.9746561773610175,0.7591102992139162,0.7511128412643221,0.5247473641667649,0.7468183974288202,0.6765997869270373,0.8201712905273861,0.30819421623466997,0.4296865101538577,0.04299118298238941,0.520197482559035,0.020900720996938973,0.7134376285096815,0.11235242504832872,0.5095786080776332,0.0389677851192823,0.5564054585374294,0.03436966074961577,0.76201104792189,0.13400991426916498,0.609265641560024,0.09282888022375879,0.7734845712540376,0.16741395257917013,0.8841546094769815,0.9736689099797505,0.6661667942269512,0.39146341828344733,0.5377952364377704,0.068118461269909,0.8599021615557282,0.49999071032161274,0.9500656925498935,0.5615310210912121,0.7113070456584768,0.3447242595452512,0.6863553113553114,0.42558063992204,0.16166392137290736,0.8795141215195562,0.4743296161471212,0.8889779640669828,0.55497449713487,0.9580805963195901,0.6876416464464711,0.5918051197841833,0.42506587678755453,0.7040024826895044,0.36593853935761933,0.7057254087578575,0.6042962299549182,0.7932270789036449,0.2954975068075263,0.8784119190607584,0.9731504084182236,0.5350016797719143,0.07247191135850939,0.8066520465814718,0.39194349144999324,0.9168303462448688,0.4314677511352049,0.7569841169685311,0.4532034496975767
17,3.474226768631379,0.5768261964735516,0.45914653972171043,0.0539005604070872,0.4332540610227388,0.1759021295043009,0.6302374154974161,0.03148517453808736,0.8632319399777986,0.4656896353790016,0.9441233038846853,0.789561874623445,0.8814993189432203,0.5863148334506633,0.9549557102268574,0.7350937563914396,0.4844633808719505,0.019681223953649733,0.6363002829251624,0.45109347490839924,0.9198004796707738,0.26311834726012545,0.7192016530762051,0.4059119409506556,0.7137953038473807,0.6045174565953576,0.7364152412214263,0.2186236689476328,0.4352522372115063,0.03519273477702972,0.5010587575518459,0.020438795471085548,0.7133110718629263,0.11169243649113766,0.5157582782278931,0.030545963199297956,0.6672120828833773,0.08213361893147628,0.7918057180397375,0.14274558625161357,0.6059628009142112,0.10010052654981444,0.7977425042058939,0.17161648951617348,0.8907516093734457,0.9755036709736105,0.7088369233309075,0.42735931929281695,0.4896817930754582,0.047242756782073986,0.8696339430660464,0.5767928069638156,0.927023357692156,0.4349292420508042,0.7034790657047203,0.30604569323694597,0.6151556776556777,0.41962529014006905,0.13770017643727703,0.8425239381291432,0.42885576917577334,0.8570329826845994,0.47091435494613365,0.9499565183632269,0.6786597725888796,0.6259584200803449,0.41245414644471184,0.6706225514759475,0.24098448389553,0.6705652361307801,0.5006546008814377,0.7268656976541531,0.217477953656734,0.881403406734116,0.9735393258322267,0.5181892058764778,0.057035822083646506,0.8200374443796099,0.38442445230301225,0.8968333491650554,0.356829195723284,0.7399678367344603,0.4049608378307205
18,3.3722809879263522,0.5186626975040073,0.5646402994655972,0.07281792244567008,0.4778895408764955,0.22471069973036736,0.6149509309971821,0.028119518847491413,0.9505594957221332,0.624685116367578,0.9670447218213207,0.7835898497806507,0.9014972423105541,0.5120647230740045,0.9340392020204528,0.6476694084150951,0.4801750631802192,0.018008348883649324,0.6699752468637071,0.4912587055012564,0.9833895292610888,0.7469466238010711,0.6474586365000897,0.3429932784197147,0.6992702115094488,0.551023742737831,0.6692620505336034,0.17151992499028113,0.42670684504348744,0.03528100514120694,0.45998441590654177,0.018008564539108086,0.7109074330312223,0.09820636206897289,0.5208478536088892,0.032189894431947495,0.6972623039335597,0.03690231397447527,0.7561641235594879,0.12225344190230811,0.6007401096284719,0.06680593764378684,0.8311826022741259,0.1616718008688679,0.8802444664147971,0.9732635886163107,0.8542491989800842,0.5230239653375945,0.4688478269926234,0.04524493568347064,0.8499817161072223,0.5762599904674117,0.9573522053404595,0.5661190683203138,0.7144085873801103,0.3257937973842475,0.5389194139194139,0.47288359652387013,0.17288097952892534,0.9366443757360376,0.5671826195687573,0.867459865302053,0.43156557825368147,0.9337487382560758,0.5997124112082309,0.6584857637158021,0.4337244560993337,0.598144246537901,0.1988177814392268,0.6522605526977179,0.4727181422278437,0.6486254894442702,0.17009216884561876,0.8713774895249087,0.9712770141345426,0.48580706230591825,0.05094316556019843,0.7878728882227194,0.38355211834095265,0.9210946971902269,0.4149449152959602,0.7362003971214585,0.4056176125419393
19,3.289888981025407,0.7036867414701168,0.5658525848916605,0.08911563834932693,0.38564964853046513,0.13522439642365666,0.62500863452085,0.037691724834971393,0.9315212929615972,0.5444017543813574,0.9708643570713994,0.7908141106540979,0.9168521447383443,0.5366324949281026,0.9303961897936538,0.5931714806615559,0.4375696887342367,0.0166699427197866,0.5851460911248761,0.3846774325423008,0.9452294749668999,0.43692885532748993,0.7043579403833837,0.3556724805701309,0.702547630836664,0.5951682658129386,0.7151878742534689,0.18513237644697797,0.4325368424449422,0.036589387820929686,0.46726590810904367,0.01734617041816533,0.7302674751292753,0.10158869419514807,0.47170408044407697,0.02592263812200262,0.6111312265451139,0.058090221247352,0.7790626141357395,0.14536942580864462,0.631591178758754,0.13351585433298807,0.817785487268295,0.16638807941165032,0.8816684091818029,0.9734488014020843,0.8172446280530254,0.5249031902694439,0.44134190378534277,0.03975436436961398,0.8559908028820099,0.5607625049325412,0.9427864999212492,0.4978344258021851,0.7037138695948527,0.30703133506867086,0.632554945054945,0.37857085585409633,0.1157057139791016,0.9059686151464583,0.49386226314163045,0.8735629845158402,0.3779196629489679,0.9316127028496002,0.5440063902646431,0.5670218162624989,0.3343871025287598,0.6454289472485424,0.21035112186869942,0.6504783068664604,0.4653847357419483,0.6947598963598127,0.17926375758707963,0.8676069451207415,0.9703647257826856,0.4738125828536146,0.046565664968150566,0.7960520239046689,0.3385710763372206,0.9082781521213996,0.3837841726511142,0.7244294857586445,0.37168053231666676
20,3.224146578277525,0.7222349438974124,0.6813644359592154,0.152221857631377,0.434387068666327,0.1760066876345642,0.6700096208145718,0.04372838588155654,0.9401206619003937,0.601641115410644,0.9509387972686362,0.6842317473709686,0.92789163717389,0.6614676370560284,0.9560249577580716,0.7038085766491644,0.4745793276862705,0.020141200959634183,0.5810292291648769,0.407255791244263,0.9806281776386175,0.7793694720982361,0.707521889077742,0.4406468395286085,0.7601891776916082,0.6920341644095712,0.7424867751699864,0.2520364647720559,0.45188725710820987,0.040845866301154776,0.43059797399970834,0.01498959939468198,0.740599497273251,0.15816697555835493,0.4957654102689935,0.028841391333377115,0.6767637030231074,0.11740266081953038,0.800383295590221,0.17107214269005025,0.6445513717082809,0.21092102150227085,0.7991276603539497,0.1539091954204211,0.8829577553427544,0.973964971798429,0.8580783594432342,0.5778297905857158,0.43415026333578366,0.04264752362980773,0.871284775161238,0.6167621091444827,0.9558106028531157,0.5628596898585377,0.7249665262089253,0.3571078030262879,0.6517857142857143,0.4152383928553072,0.13364362341678668,0.9256134860823862,0.5647969317369346,0.8704631004944351,0.5355923570732953,0.9454980976783912,0.6193702295757977,0.5603990851244758,0.34082981460204154,0.6391581632653063,0.24713023644929863,0.6944601485578026,0.5442164723131695,0.7111384154205445,0.24153978809430665,0.8716726180814802,0.9704169913370368,0.46773135453175224,0.0512857077174239,0.7966681692353217,0.3615924751507168,0.9171929437504022,0.42845667578928626,0.7346028312564671,0.41990594193800795
21,3.1295557323461924,0.6546828486375086,0.6143626768489416,0.11771393761961364,0.3942298228079251,0.142553213244548,0.6457694052399613,0.03574548900205652,0.9169790443420437,0.5857488303749782,0.9631661255335009,0.8040673712835634,0.9077853303125382,0.6458383631525781,0.881123724797921,0.5404298414203696,0.48939143796908935,0.022176856776287123,0.5456925746061072,0.3382453135619037,0.9593674600792601,0.5935507632761081,0.7024589412566191,0.39961538306029604,0.7185970139302822,0.5627577925024565,0.7566412619965278,0.246050676136086,0.44522105466965356,0.03506852472525039,0.46318896752484795,0.01849956888584344,0.7593817535938963,0.18159400104834397,0.4194931477029481,0.021033181204425384,0.6104863104009928,0.1137264435277132,0.7989333853282715,0.1526695635771197,0.6451579868562566,0.16800947309716047,0.850693339601182,0.2211063246127455,0.8702097920553491,0.970573376552811,0.8094382876291206,0.45240951344899805,0.49673353429009537,0.059659359107829074,0.8407571934049534,0.6247277081584424,0.940162162838655,0.5245006846402885,0.7094392975237285,0.329925828999916,0.6353021978021978,0.3809857258281713,0.11652543906362299,0.9040677133832972,0.5271390385884285,0.8626253891387063,0.5384306924185955,0.8716499728239772,0.47765912364829716,0.5347555933495587,0.30048253390559815,0.6293817192055393,0.23537628867298246,0.6610395407806282,0.45536202622382166,0.7197915577399003,0.22227098358982642,0.8606392059971024,0.9686197702557042,0.5070414222674196,0.05628293657405633,0.7517155554572279,0.33232861982693845,0.8991764440317983,0.40289326186921137,0.7152391533336105,0.38611422621975694
22,2.9973815132321207,0.7166628501641096,0.6427688895929035,0.127605727811784,0.41705505755169753,0.14588569218981223,0.6395954557852002,0.03828534389348579,0.9335454717432352,0.5858986676098763,0.9600312099308168,0.6937170698414696,0.9097469362286776,0.5807340792339799,0.8590861981673186,0.4945327766705326,0.4856501530294757,0.026539128187402953,0.5636613308905176,0.37735293890283783,0.9578809944200642,0.5870902450806799,0.6658503331084854,0.3701591513857284,0.6829172761617515,0.5423869326179682,0.709099447033502,0.21033127153297385,0.45029365258640164,0.037721130886351685,0.527643537882226,0.020404526923459638,0.7754191368649199,0.0879037123683042,0.49451443880288637,0.03051439735195902,0.5982875322924186,0.11693165612968037,0.8208542140126359,0.18152735585659535,0.6479710333704172,0.23096552861752326,0.8501413353234576,0.20947410617258524,0.8729853446018235,0.9720242786376009,0.8721765527404624,0.5440723188490698,0.5427955925693482,0.07039940756495056,0.8797305573526902,0.6492372792404371,0.951287805389481,0.47616804236474525,0.7196534418243389,0.3233793371508383,0.6284340659340659,0.3996463837599686,0.12219668617842003,0.9180856154835272,0.5348924160727462,0.8852880135104889,0.47314032410002127,0.8517478065067163,0.4211533423669132,0.5478822977450664,0.3126686786624371,0.5880255785349854,0.19909591043627084,0.6285798848033317,0.4131126872796349,0.6756614033253163,0.19311044164680025,0.8594263797964496,0.9690366140955367,0.5149170555868305,0.056318814994291366,0.7842130734534835,0.3538551824057893,0.9127416763444453,0.36166211320015446,0.7138512640708842,0.3675202676199179
23,2.9627643788136577,0.7789481718952752,0.5879071589952228,0.136526971467038,0.38324417913196607,0.141408840284584,0.62111651297813,0.049934456123985914,0.8531308559659913,0.4983612580285951,0.9167759081341742,0.6128318247737812,0.8501388440537445,0.5406714435713021,0.8797213124795852,0.5370054497199935,0.5065108962066469,0.029513753814095545,0.5568316307306985,0.3587475044533842,0.9613476116956029,0.48000127502872403,0.6828216723166608,0.3819971831783303,0.631435205333198,0.47845620894354884,0.7010331898448058,0.29434468247510315,0.42989014777739465,0.04990097610204102,0.48624892846580836,0.0238057236183866,0.7372987124345498,0.14006330029125566,0.4707858420868716,0.03147293434360783,0.6063826375671951,0.10511436646561703,0.7797163101371083,0.18621032200731613,0.6464085856418162,0.2227488951456302,0.7951697773335765,0.1644697600047373,0.8572729874965235,0.967994802443577,0.84203368319852,0.5211041979788209,0.5010636911089399,0.07231635913346134,0.8772257726951762,0.6669372007785934,0.9280178371093956,0.5114357030140794,0.6957511496507424,0.31551443819959957,0.6815476190476191,0.36972387094651965,0.11612574293523506,0.8486019966126664,0.4788653732076487,0.8126711701629805,0.4024185019382555,0.8661774982529701,0.4945693587660227,0.5368618596604404,0.28615534755516014,0.6123747266763848,0.2016118810051668,0.5631387453750608,0.35480180094234265,0.6827773711178501,0.23207948715499485,0.8441924110443833,0.9644571481908449,0.49135484954691555,0.056112600307725566,0.7730776569884652,0.35826238195235427,0.871926475439892,0.40305202141237595,0.6894065526520441,0.36237597044734393
24,2.8728597853786297,0.7010915197313182,0.6682669012147031,0.2007666133251872,0.4939278061637805,0.2704690501694092,0.7463480427588594,0.0672291564159775,0.9175100298754654,0.5766903044163822,0.9251090401780472,0.6037180271354768,0.8844565521205274,0.6123382196108423,0.9201345090731672,0.6253536248022092,0.5497783930000126,0.03745861263588049,0.6282086490218923,0.4554357036957726,0.9782160789753324,0.8625849374545357,0.6864764410004556,0.4629790537247517,0.8291045307899637,0.7791297566225965,0.8047662076614442,0.33086919573739315,0.5711574225828859,0.0874077811632212,0.5451829682962164,0.022721301436558684,0.7318086538497595,0.16133490567773184,0.5477775146889494,0.05332890991461292,0.7300916866039413,0.1372940320355204,0.8333503753760528,0.21057676170676357,0.668107310913663,0.33714415926374697,0.8270882618204451,0.1705722126637424,0.8683855106652076,0.9712915775243092,0.9137373322319247,0.6447996432456748,0.4940526026498877,0.06040283210495116,0.9117381142926198,0.6722683212353452,0.9233236061762332,0.5327652504340564,0.7537732516146707,0.3825742286212558,0.6886446886446886,0.44391605314934324,0.15462948952197966,0.9045645778108837,0.515410054059695,0.8328941746190001,0.5035782984832514,0.9024706887180681,0.5805422032653955,0.5988561123654812,0.3771904178393302,0.5994294369533528,0.2526610648700116,0.7215515166441834,0.5871171124927226,0.7553809822580083,0.3068822209527378,0.8536451664292112,0.967068566182185,0.5265256414912742,0.06502511403952632,0.8276502130789845,0.3984713934997065,0.8557168348404112,0.3818833831455359,0.7352167831965168,0.42420494319600643
25,2.746932154347465,0.7348294023356996,0.6046215411806881,0.13855586697325487,0.4284536122328686,0.1573493788274211,0.7281122907864499,0.07618010286551259,0.823098606882422,0.4463338810064477,0.9557252509576346,0.787979964019969,0.9285495655802564,0.6916882849335696,0.9148188577099382,0.6177869476600791,0.5111784539578121,0.026335554182236626,0.5601247180964313,0.3507385963108671,0.9500949066751028,0.5573938945577382,0.624856200511559,0.358047094039911,0.7533463229822897,0.6478248711963457,0.7285009246843297,0.28924257120247576,0.5009854090840383,0.057027111887936445,0.5365316499514147,0.022269873281898785,0.7238827704218679,0.17769547247492448,0.5525572711493185,0.041001269857244685,0.6596677386059222,0.15574033974715806,0.8390453415242068,0.24299628919471444,0.6678959120295931,0.3466662929114714,0.8403709419349953,0.21573154460413674,0.8768677359957612,0.9728041857481098,0.8183343277168368,0.46393772796301724,0.5410479944416596,0.07677566710602815,0.910797842923192,0.7063523061468765,0.9296864798262241,0.4909183674251072,0.7272751026093389,0.3505912867740174,0.6307234432234432,0.4028856729913261,0.12261185392102118,0.8081291847511725,0.42314128460973255,0.8731885974728875,0.4983527407962564,0.8743559282552993,0.5175331074183683,0.5256399730229012,0.2780514709928726,0.5372027605685131,0.1733443187476466,0.6742744233169701,0.46872854555336424,0.6876125576585682,0.23605751611375314,0.8600237756016038,0.9682355940957413,0.5175990157444568,0.05892394456473063,0.8062239527880023,0.36535771403268746,0.8875048899593175,0.3759805998035159,0.7045533943442516,0.3738598908874742
26,2.6767896410800347,0.7962750935043127,0.7062501771615798,0.22019118060291984,0.438180237869056,0.22799691593524596,0.7339885718110845,0.07913299615958913,0.8635421611704616,0.5536787093325084,0.9394784657180566,0.7043942943172127,0.9158573786400123,0.6986675225322602,0.9502880366621675,0.7288749577431562,0.6650803880979896,0.06292828192581867,0.6368798563912677,0.4519547390482155,0.9752048424936752,0.6989821055914133,0.774943572048883,0.5324801983024486,0.6912694206312774,0.5924190580123598,0.6485563332973294,0.22114235428330165,0.5248573772357253,0.1167925794593093,0.5651373539885605,0.03770864685401,0.7496659529496761,0.11388070240061138,0.5379043638162053,0.04332351986657561,0.675481328568275,0.1675200111924241,0.8284739285149798,0.2342804742261922,0.6990885469494145,0.3433710520661665,0.8499849135296208,0.23696730446201172,0.8733944533205571,0.971964832457727,0.8339374491301522,0.5460030935682845,0.5643497507750902,0.1036547011109622,0.8983225418727703,0.7191217220371878,0.9267186264353715,0.5126559160018023,0.7487244626568939,0.38154184113421985,0.7140567765567766,0.39826974751389277,0.13020448676625562,0.8379023499107391,0.5000073747161623,0.8444472704335972,0.524284373139916,0.9239614876931439,0.6093922187754871,0.5905876315866639,0.3511437136585531,0.6733646137026239,0.2803042809906362,0.6137404772433404,0.4213907702277199,0.6164319657940907,0.19805345656956544,0.858756094188654,0.9670379972079823,0.5384894764559536,0.07207235725213948,0.7818939555258114,0.3702063130286682,0.8684394109782269,0.38460483847961846,0.7121903734188947,0.40072518173439203
27,2.601424245377204,0.7744446988779482,0.6031353847949511,0.161956274342703,0.39292487026489115,0.169942362068833,0.7162970616992596,0.09086393300174388,0.8294511587897045,0.4440330551830175,0.9143457991896087,0.7149631070915546,0.8392903452327993,0.5884894502541046,0.8581026333114863,0.5067179958329845,0.5443363219587773,0.055936954296429336,0.5734806487619089,0.3918802101720764,0.9570702769057718,0.6058468073410984,0.6796266480549215,0.38338089154107735,0.7260910892251871,0.6286131899537399,0.7126693278783105,0.22665020694429552,0.4797316874748425,0.08884721954628522,0.5261025047665384,0.027416211199722422,0.7241886937729131,0.16480934278510156,0.4542515844206434,0.0257054402738683,0.590473960228866,0.10446338332590928,0.817157510912755,0.21122126183767415,0.6684597313597077,0.3841801069179108,0.7960632339217949,0.19669084730865527,0.8529234667051036,0.9676514453599477,0.7916275437958663,0.4959782707638197,0.5223141295539485,0.07693815582669597,0.9116083342679508,0.729961354186468,0.9085694656210958,0.4172198389165772,0.7073189774180617,0.3407829737027805,0.6783424908424909,0.3626433225124023,0.11598457638052358,0.8197114524337618,0.4077793701284169,0.804569963578652,0.4842571008247929,0.8427059554313224,0.42466303785027304,0.5438345600093833,0.3235285263322135,0.5939515761661808,0.21176628044594212,0.643507453078908,0.4455405510211457,0.6954250758130295,0.20782285821509372,0.8413474544175729,0.9644724482669298,0.5053332758276281,0.05592470366203646,0.781740748832283,0.3608764681803184,0.8611328158913719,0.3423846267783785,0.6913253044993746,0.3620833790071721
28,2.5736493700997958,0.7700175559117625,0.5676761402952971,0.1597956298051575,0.41787992395070617,0.1805021914472536,0.7274603399544383,0.05775797216081373,0.8562992793480938,0.5017658659830248,0.9142706511244364,0.6927627921554724,0.8636308052216978,0.577718647984924,0.83306732153904,0.5206649324159929,0.5314669240440419,0.03197280652537036,0.5695044771547503,0.3648256379185787,0.9539860352894203,0.6596774199907671,0.6882950515938406,0.35542280188535413,0.748390137816485,0.6414744425613411,0.7145028899678336,0.22752671224018206,0.5232304841616124,0.07934017186302329,0.5575953886892326,0.02652980446373584,0.7085697286500499,0.10953708711259787,0.5233772458291404,0.03195266434600851,0.7027561169149629,0.14750072115978774,0.8308880508213763,0.1959584343456006,0.6694897670839837,0.3136289066875512,0.8639367084491232,0.20770324515462366,0.8785152552970769,0.9728010411029847,0.8697068804257378,0.5475646230978183,0.5309812970446455,0.05725672565886321,0.897140577843447,0.731566057179261,0.9116281126332064,0.38243265770966284,0.7251632919670645,0.33752461511368276,0.6703296703296703,0.38301038439318835,0.12537876477716667,0.8253101241328801,0.4477635266021929,0.8151911612102468,0.43917563351178396,0.8120397546393354,0.4236560566690896,0.5289983285927924,0.2735056316092216,0.5986817829810496,0.17576607563490704,0.6592535166329885,0.46763705657261834,0.6888104616171122,0.21989410088849637,0.8603514039928584,0.968702390980615,0.5081582435941671,0.05477040934590194,0.7723049864077456,0.34625741640729246,0.8573980615843776,0.30842772626336745,0.6924590174815619,0.3542445657718878
29,2.504919243244695,0.8293260056484237,0.5665128765204632,0.20029912956573592,0.5384197054023754,0.34168348317084274,0.7890866065585328,0.08236049744871238,0.8432099349307367,0.4971005536232535,0.915879289394528,0.7338784311952933,0.8991687810264668,0.6789500041340006,0.8202542513304831,0.5607448645556181,0.6028650165729017,0.06484006846964865,0.6413477604895156,0.47331664115780037,0.9401691375750219,0.6520992752407715,0.7892249549524255,0.5837271767862416,0.7906852381335399,0.704736981296105,0.7930034853486271,0.3150100848013428,0.5894096546992057,0.1606886873036536,0.6760406317588424,0.05697643087886008,0.7603463964791628,0.24316112867477907,0.5843626418531468,0.05475128337410247,0.7406829287210114,0.1623931333593035,0.8522494159758792,0.3019107585483576,0.6928911608930571,0.3797015088012626,0.8899805254866674,0.22287469282246983,0.8676315463586848,0.9714631329573623,0.8968188022847959,0.5963521614228617,0.6409200558521825,0.12938377887712083,0.9196199871861844,0.7604343957467496,0.9206301407903272,0.5017206938838374,0.7677465740990294,0.401175345311388,0.7326007326007326,0.48703030203349895,0.19139188950332464,0.8321405535419277,0.49096096778201026,0.8407898752721428,0.4881742316635436,0.7951378212594146,0.5070417266312085,0.601869630237809,0.37666395211723636,0.6980588329081632,0.31653069770019243,0.6981819301319332,0.5328411370427275,0.7683421055689171,0.2914586825297591,0.8525604609641291,0.9655940255063291,0.5817526830951387,0.08354964213114507,0.7968683888131459,0.3794592332374107,0.8655427165396553,0.3766777066274047,0.7348562750304897,0.41669532437269097
