epoch,train_loss,train_accuracy,train_1st degree av block_rocauc,train_1st degree av block_prauc,train_anterior myocardial infarction_rocauc,train_anterior myocardial infarction_prauc,train_atrial fibrillation_rocauc,train_atrial fibrillation_prauc,train_complete right bundle branch block_rocauc,train_complete right bundle branch block_prauc,train_left anterior fascicular block_rocauc,train_left anterior fascicular block_prauc,train_left atrial enlargement_rocauc,train_left atrial enlargement_prauc,train_left axis deviation_rocauc,train_left axis deviation_prauc,train_left bundle branch block_rocauc,train_left bundle branch block_prauc,train_myocardial infarction_rocauc,train_myocardial infarction_prauc,train_myocardial ischemia_rocauc,train_myocardial ischemia_prauc,train_nonspecific intraventricular conduction disorder_rocauc,train_nonspecific intraventricular conduction disorder_prauc,train_nonspecific st t abnormality_rocauc,train_nonspecific st t abnormality_prauc,train_normal ecg_rocauc,train_normal ecg_prauc,train_premature atrial contraction_rocauc,train_premature atrial contraction_prauc,train_prolonged pr interval_rocauc,train_prolonged pr interval_prauc,train_qwave abnormal_rocauc,train_qwave abnormal_prauc,train_right axis deviation_rocauc,train_right axis deviation_prauc,train_s t changes_rocauc,train_s t changes_prauc,train_sinus arrhythmia_rocauc,train_sinus arrhythmia_prauc,train_sinus bradycardia_rocauc,train_sinus bradycardia_prauc,train_sinus tachycardia_rocauc,train_sinus tachycardia_prauc,train_st depression_rocauc,train_st depression_prauc,train_mean_rocaucs,train_mean_praucs,valid_accuracy,valid_atrial fibrillation_rocauc,valid_atrial fibrillation_prauc,valid_left anterior fascicular block_rocauc,valid_left anterior fascicular block_prauc,valid_left axis deviation_rocauc,valid_left axis deviation_prauc,valid_myocardial infarction_rocauc,valid_myocardial infarction_prauc,valid_myocardial ischemia_rocauc,valid_myocardial ischemia_prauc,valid_normal ecg_rocauc,valid_normal ecg_prauc,valid_mean_rocaucs,valid_mean_praucs
0,5.241875697070338,0.48332188382566216,0.49358979468743436,0.038266334132649876,0.6192866668520911,0.021501333768426764,0.6558195997307343,0.19670620840067232,0.9359571894905683,0.2186818466292541,0.9442228983661342,0.4854662766432217,0.4926497234633957,0.02058124806971245,0.757938193768791,0.5440623076091861,0.9153406868324335,0.14619526476265038,0.6184409175618409,0.4137433748468331,0.7193638052086122,0.2762969245206947,0.41236101726355945,0.03154375109839218,0.3825784509844313,0.013314806097408045,0.8972171101647788,0.7350214088390196,0.6135678227014396,0.03104514412815874,0.4566560561816191,0.015724217054711918,0.3948131775827336,0.02006576637120027,0.34816997518610426,0.01092766983204658,0.735015980382104,0.11053557045972981,0.5338275564700364,0.036846373487864154,0.6850061842502144,0.06420595777704466,0.6848850134640591,0.19695274472707736,0.6667021818520066,0.09829936051124068,0.6347004546565965,0.16936290408032706,0.5059523809523809,0.6917193392468264,0.2018704528311266,0.9490945083098816,0.4925974570724379,0.753660702917548,0.49834911040511437,0.6222885835095137,0.4195056456245383,0.7235534279643804,0.2716767080769904,0.896380698265207,0.7302142645220314,0.7727828767022262,0.4357022730887065
1,4.769494020086274,0.34401954049309214,0.4110162201443857,0.03233771995887827,0.37962603770657144,0.01222382117184099,0.5883607828516064,0.1483377157758114,0.931249007118003,0.1768315069856622,0.8898418266496776,0.27776990474938246,0.33097273213105527,0.014422176739224794,0.5697481067069914,0.3230823064130387,0.9069313101265682,0.12810127550670122,0.39240335990160313,0.23812514563704335,0.56433957954091,0.17557286645564135,0.3625995388615922,0.026786858478453773,0.3550620072967474,0.014507537370220466,0.9191155663650961,0.7846055074816938,0.5174533964271264,0.023079079263587855,0.4048791746001773,0.014677987027504419,0.364794052813785,0.019024140918587486,0.31282265629728256,0.01087114216110396,0.5709982568435834,0.061610121765118826,0.5692648682996203,0.04765713277827298,0.7361370426477354,0.26582312937546826,0.6433899363118238,0.13765406313642123,0.46635975448399614,0.05449300057594871,0.5539711460966337,0.13579973362389122,0.39217032967032966,0.620267195612858,0.14916309106623482,0.8834505090798068,0.24674142592672524,0.573965266773332,0.30084629523549555,0.4085862913096695,0.25882426101512446,0.5508663796756592,0.16153194576315028,0.907761628024011,0.753235141447179,0.657482878412556,0.31172369340898487
2,4.5261386182233405,0.46240744981299137,0.5496068518119956,0.07888461105528168,0.5668113954124989,0.0254117508528914,0.7793277518114065,0.30512136196275774,0.9850088910981403,0.574321102394389,0.9019105869260846,0.48741486031192527,0.4574943158999851,0.017017276599366166,0.596486672237171,0.39162808309049657,0.9586026436352304,0.3024818508504144,0.6943042774572228,0.5771411579742448,0.7877570728735409,0.3899206675937853,0.3979776475780189,0.030363803571143808,0.45312205934989,0.02013224899380843,0.9261506074993576,0.7948843841045893,0.5939198983925552,0.03646242643260571,0.5234209972207423,0.022685154842927636,0.438033850366479,0.027291180809203786,0.4804303092658718,0.030472082260968824,0.75355800296493,0.1073278393426732,0.5877617575516119,0.052099604403641586,0.8232913691795168,0.33703758174896,0.7724773803152902,0.2347234740420046,0.6576921253429233,0.10510242725306736,0.6675066574632028,0.2249056786586885,0.4700091575091575,0.7919529590830051,0.29904539414091613,0.902719793713163,0.4422967149996003,0.586763882475843,0.3478756121751726,0.6839409702904194,0.5520585287994203,0.7851302418965956,0.35830520691764156,0.9162554300345831,0.7729248799400597,0.7777938795822683,0.46208438949546843
3,4.346513767750534,0.37439890084726357,0.5626750351398819,0.1085603935400935,0.5324399041452635,0.019734306992089674,0.6790902871543048,0.33593494764755927,0.9802858475240727,0.4279985780146267,0.9373912125879177,0.5421229212884557,0.4539143606138512,0.01940955847492755,0.6692629126920874,0.4717581385118617,0.9560889580382026,0.391913263999251,0.6265253736153222,0.4805237601744266,0.7581520233768879,0.40054895981150557,0.39813133805811574,0.029811104442080412,0.5437125607121275,0.026611895794775207,0.9325016913537905,0.8078524164831554,0.550027666056629,0.04322592140939212,0.5463624244958333,0.04428629424582376,0.46241626981584694,0.026187091101474193,0.4191159671367185,0.01627442082249435,0.7104387783653955,0.10605864209376463,0.6037964405847971,0.06380910000506824,0.826051743806903,0.30143089449318217,0.7302115013392007,0.3790945068220831,0.6156173883378095,0.09291795035780659,0.6588277129523165,0.23345750302390444,0.4693223443223443,0.695821400552224,0.3207289097732233,0.936277909786014,0.5013744069574246,0.6587274096732082,0.41413524119978185,0.6141254033604095,0.4644928251111689,0.7603274386198714,0.344151882786118,0.9182807473821095,0.7721591917459573,0.7639267182289727,0.469507076262279
4,4.221850792894508,0.575299595450729,0.7077956067840565,0.18289753624766783,0.5476699086686468,0.023923330894755818,0.813308491457392,0.48633773061303626,0.9854314104305136,0.5783111983061976,0.8936194477599636,0.5204477972512125,0.5264358874627253,0.027079436514851833,0.762131136566168,0.5976718643970496,0.9604586249649157,0.4934262037511815,0.6968321669859774,0.5270024255722504,0.7130580358439934,0.416505505664464,0.38721261721828937,0.030592087862093595,0.5069735539101792,0.02957992485094904,0.9373751912987179,0.8279095575494368,0.6154582249243705,0.0646197752613959,0.6828446590519951,0.06942141789373509,0.4440948123471027,0.026736109150629746,0.5632977516189553,0.051613485226468206,0.7196317994831358,0.11565217063712654,0.6406256461463203,0.07538332192572797,0.8947139826402872,0.5314061307648065,0.8327696561834125,0.39482868878095484,0.6146846315958722,0.12742069141024226,0.7021101474246815,0.2817621086602834,0.5618131868131868,0.8246545117014542,0.4791619435229219,0.8919317156055859,0.4734465526034354,0.7415275440531506,0.5326933019370194,0.6688427728941805,0.47854453146922804,0.7051585318451885,0.3509220114719607,0.9165156087073799,0.7738587052602365,0.7914384474678232,0.514771174377467
5,4.0863317001249015,0.49133653919548126,0.6222568971152084,0.21782078424937673,0.6114025855014588,0.028713232646548854,0.8246535927274193,0.48805107138010867,0.9809282101476383,0.6674047725206824,0.889959733022028,0.6467007700332622,0.4764599203751664,0.02492251730012693,0.768637427113822,0.6157353512507491,0.9398826033243237,0.6496962829833843,0.7754352999949917,0.6537497383510812,0.8094066690349339,0.4748878087923048,0.4083466487104398,0.03491331823485903,0.48391064461445704,0.032359012348186944,0.9493290664801662,0.860302990030734,0.6290829204637716,0.09527711441212527,0.6986547313696443,0.1541728916113887,0.47503861732191544,0.029108167701957073,0.5360446423167705,0.04742039668761258,0.6613205235378254,0.1067933433822255,0.6868673649669761,0.11716819664108753,0.9116338890171423,0.5203040344748356,0.8766076793936031,0.5657859656381817,0.6256796305252632,0.12137604586466236,0.7109790589579529,0.32512108211524915,0.5849358974358975,0.8366089162146795,0.464789069758792,0.8982719826899591,0.6077629092602435,0.7482308941942035,0.5360775836241075,0.7391533604094803,0.5906876835041358,0.8046158207445985,0.42813213687972684,0.9230064878596707,0.7837887316409787,0.824981243685432,0.5685396857779974
6,3.9610857243265287,0.6180444240897641,0.7456181430731255,0.29003301348579086,0.6025217861654739,0.032798818076930844,0.8521819209910905,0.5562830322356578,0.9935356335740164,0.7560948888769582,0.9202850085384529,0.7308026557399914,0.45742316583025805,0.030460972800530367,0.62685870244034,0.514868708256619,0.9679426630392745,0.7529654927721741,0.6926003589096091,0.5817628545962328,0.8613432890942593,0.4790208603355501,0.43441434551628955,0.04192803137085295,0.46019210935676796,0.027592258383450592,0.9504701985924712,0.8570771154535365,0.699139337783125,0.1543817998557455,0.786063847244983,0.20673001310523773,0.5088991868413997,0.04711483534545122,0.5191884040428494,0.019604785162974772,0.7585380774531493,0.1589366210356356,0.7073799785836641,0.17693921696735715,0.9277178895024457,0.48083701009214336,0.9234097770488067,0.6698340022055943,0.6573811849566435,0.13701501398254604,0.7296865912990225,0.35014009091531645,0.5508241758241759,0.8409051527845863,0.4888496739220214,0.9160673750862849,0.6727059395717151,0.6094869784915391,0.4534952955677916,0.6477186491598976,0.5061945900653517,0.8467719356695922,0.41484630746655016,0.9165344804679794,0.7609455867183008,0.79624742860998,0.5495062322186218
7,3.844995669231789,0.6252957789481719,0.7185940626220597,0.29678002376078777,0.6579989225857357,0.03089777723996368,0.896100103751503,0.6678085369235128,0.9907717063221602,0.7472344018488094,0.8457760304446091,0.605104300653115,0.4756353701226627,0.04486858204427367,0.7255710361813325,0.5929914103149379,0.9792669558856354,0.7473598454892951,0.8548023835231311,0.7297258549281854,0.86434397645989,0.5276542256159916,0.4865882454574251,0.05694592677479092,0.5543233673168404,0.04282017394408995,0.9627788551001202,0.8866778945210856,0.7113033593157574,0.20503624986927532,0.7345808895872626,0.21615201104226509,0.5588245622776983,0.05073764932354199,0.623959215941415,0.10318876544360808,0.7380796255776486,0.1485478290249261,0.7236011720148672,0.2289189840665008,0.9196220193009269,0.5333115456218992,0.8712584097148213,0.6082048216836619,0.7030436213224068,0.18258416191449828,0.7544010859466322,0.37516140782040974,0.573489010989011,0.8643803327450026,0.6135318698565563,0.8274654197419423,0.510311515722268,0.691017253096031,0.4845379329369171,0.7929954378546791,0.6115932581844447,0.841443605682539,0.4486139972328707,0.9190595220361774,0.7590660182499496,0.822726928526062,0.5712757653638344
8,3.7395758102544527,0.5120983131058697,0.6875831998150673,0.27622733067790173,0.5816803710052597,0.03583564458877627,0.8936968043617374,0.579467779378107,0.9946248571531062,0.807693480309564,0.885437358346554,0.6210294436384745,0.5242697631177012,0.04011421486865596,0.8508969174377558,0.6919689202416776,0.9726791945774759,0.7270553982372605,0.7046427748210818,0.5541200736503629,0.729173292713808,0.4114434199380315,0.5249562869451488,0.06289646344889312,0.46010519443279113,0.02404793457127314,0.9670251213610707,0.9094881884345302,0.653713581957176,0.15314880920089832,0.6885093917029903,0.16834691995116394,0.4461735038902058,0.024285972379522132,0.7707101464625068,0.17487751319526534,0.6475146552008801,0.15427091110820293,0.7170436378857336,0.24808388290970262,0.919908272572092,0.6344374089062603,0.8411293433954058,0.48027512210416606,0.5624083830610345,0.09431499629081427,0.7283582751007537,0.35788317400134106,0.4892399267399267,0.8696178404401771,0.5124387420044758,0.8744184078479265,0.5495889587392435,0.8076667131985341,0.5602835630405292,0.653584622232113,0.4596192934905198,0.7255027457031717,0.35992178200162106,0.9069056049632225,0.7339300860944076,0.8062826557308574,0.5292970708951329
9,3.6186616874616497,0.5745362949393176,0.7439069836031597,0.281177955067451,0.5563940730504437,0.03312038373443195,0.8726854447571886,0.5955155604145104,0.9447721880300708,0.5624045676178251,0.8650045911708821,0.6217538281363657,0.5066122131466355,0.043953025164618485,0.7393983565918931,0.5834692693414457,0.9635559788986547,0.7774115092141642,0.647281255045125,0.500640911323145,0.7118110799517411,0.4117616169785989,0.4893919247874283,0.06809320649379907,0.5205853206852729,0.03623439315303334,0.9774282064530688,0.9375917478487199,0.737020064254919,0.1987339196447105,0.7427734803814678,0.2120409378830888,0.4699112335475971,0.034083225959209096,0.6679019397203897,0.1377302729450801,0.7162881717365348,0.2026489529889938,0.7311052106920299,0.42096655695804636,0.9100703437398369,0.4656422289945289,0.9296050127828321,0.6717059905657192,0.6287961846641908,0.15945398244109665,0.7305590571677892,0.3616424564940265,0.5531135531135531,0.8673286620975978,0.5590196355413494,0.8380834174056178,0.4946212657660173,0.6970060578355317,0.4493099910914543,0.5921910815622566,0.3991733222698985,0.6851182595836584,0.3001847155421569,0.9157076457302517,0.7525994620072642,0.765905854035819,0.49248473203635673
10,3.4896024055275676,0.6231585375162202,0.6742313732054747,0.2589706989251289,0.5456770216522207,0.03620553141316266,0.7751882154140137,0.44032312559925924,0.9805543740615663,0.677663765523295,0.9086384277896714,0.6002470959688274,0.4502820704986513,0.0379426523158058,0.7065651467652971,0.5111405412894039,0.9407423041307629,0.7491414753306058,0.6967758171197208,0.5071162388326265,0.6965469917003473,0.36588948552508843,0.45355701381071356,0.0639952928745628,0.4207282854696725,0.019682544215165354,0.979600171687521,0.9450810674120159,0.6984721369985611,0.20781854856958704,0.6852691099256742,0.16551727771547436,0.4638183574053905,0.031724883863981826,0.722851101494886,0.2107581627072628,0.7186693268774559,0.20457683183425338,0.7300929778288812,0.40776466119045934,0.886730486331459,0.5457295358949229,0.8504156467366278,0.5095597557570246,0.5697517810629252,0.12532776481020041,0.7070526426348861,0.34646258807127794,0.5423534798534798,0.7764354820030877,0.41536060828102384,0.8845610099293792,0.47711484424588824,0.6670890328479191,0.3811744248462878,0.6418902303327028,0.4036002584996813,0.674210555540943,0.25786169579477536,0.9170337014417017,0.756280350162294,0.760203335349289,0.4485653636383251
11,3.3534364437349025,0.5760628959621403,0.6987030792899219,0.2455783404074399,0.5862103417130594,0.0783262698709214,0.852535615276834,0.5591560120627895,0.9822580314545016,0.6258839579342386,0.8316655884816597,0.48544151527550344,0.48764803167284876,0.037287857911337235,0.7081062156654647,0.49646515073218667,0.9751305573911064,0.7407302488995002,0.703405504089448,0.5752317895436103,0.7125642379532491,0.4127698497195977,0.5230106290862749,0.10990472970339504,0.4997373732119992,0.034427978464816364,0.9814203219012295,0.9509404208845402,0.6894022925983585,0.2418807805373167,0.6593876940853289,0.18412031496463796,0.5043296483747506,0.04199548150149142,0.6289108364098529,0.18511693057889658,0.7073669648396834,0.265562607755788,0.7442183457645581,0.423263164774208,0.8915308631157499,0.5335250755013287,0.8609461719299096,0.5562097813718349,0.6157824244409064,0.17985354959470187,0.7201941258521226,0.36198508218136727,0.5103021978021978,0.8488532775130242,0.5035342697201529,0.7998700751340732,0.35696809334162766,0.6698702067702332,0.37760511623392606,0.6337340046734171,0.4625737941094238,0.6914940190723351,0.3042088361543593,0.907566368207676,0.7326962193022442,0.7585646585617932,0.4562643881436223
12,3.240296981960897,0.6585756812457064,0.7913230730192135,0.3119073550908538,0.6419965393922271,0.10087714149450042,0.8589157313525864,0.6042476496147444,0.9853501862774741,0.5802301098968656,0.8111467316051368,0.5165604100527559,0.5452871774925451,0.06678312692300453,0.69852233722722,0.5870533610802722,0.9158724195163133,0.6756867684354331,0.7916548383273654,0.6753228140599433,0.7954796380037912,0.4890626839444743,0.5601354183896854,0.1467133096588286,0.5280247591190522,0.06569094591737396,0.9908035436044665,0.9728772572115639,0.765262887827203,0.3093754495358534,0.8221323777902168,0.2801183297957309,0.5301898477374164,0.05237794313630471,0.7368123222175149,0.2282818334354274,0.7574143237752284,0.3704058183753177,0.793439776221143,0.42696302335787073,0.9347039227019276,0.6633241448902997,0.9022429399662137,0.47967898798021164,0.6364681088666259,0.20509365284079387,0.763326313655935,0.4003923689422011,0.5679945054945055,0.834141235947327,0.5419852892528444,0.7714483884670525,0.36988187338350836,0.634305849362539,0.4170390137844761,0.7128774897073551,0.5188091990476437,0.7551388048665725,0.3425700251840259,0.9052604906859055,0.7333426342143625,0.7688620431727919,0.4872713391444769
13,3.107904366796849,0.6351423555453782,0.7123747518951623,0.2492642809227982,0.5800331421996525,0.10661004233682783,0.7580299524540078,0.38371576941751573,0.9682505803555415,0.4085362824580141,0.8456132113565537,0.45073534461925957,0.5347870083134904,0.08026924478044918,0.7093527944709626,0.5676271661272412,0.9676566854445361,0.8023878177640195,0.7379740395559573,0.6131095939820175,0.7442823589024825,0.42241274238478704,0.5711600316354609,0.1640412883345045,0.5344201919108896,0.06896199161717331,0.9921270475343174,0.9768813417534619,0.6990408653781742,0.2640974262924096,0.7135899632004999,0.23546766661121538,0.5415410862204378,0.07532687121143344,0.6625196695515343,0.12049756779588235,0.7060381339362836,0.32695360524107236,0.7594747114089897,0.485807362863014,0.9158944077190226,0.640955576531677,0.8366109741742906,0.4582401426493922,0.6142258544193473,0.17339570097490226,0.732045339183527,0.3670588557576849,0.5160256410256411,0.738295280496183,0.3025936238540519,0.807134584240429,0.3385119046410077,0.6436105865623125,0.41004143910421875,0.6571049849783019,0.4459219187136755,0.709180497470563,0.30972028340932134,0.9080036898066324,0.742211181051355,0.7438882705924037,0.42483339179560503
14,3.0070902508603243,0.7790245019464163,0.8109926053465764,0.4085196084252614,0.6846546784811387,0.1292967169835405,0.8649992819108387,0.5809119831007528,0.9910983965276033,0.7026906421345699,0.8741606568975773,0.5849780058638955,0.5719662400824708,0.11424638860898577,0.7493499256162105,0.6316246744661489,0.9540526384416652,0.7032059609162313,0.8087327983595547,0.6859013889196985,0.768643065606809,0.49722485141747164,0.6049967152426803,0.22423977937910491,0.6109744463279814,0.11748282046118204,0.9877038523464932,0.9515023874518325,0.8495807219166079,0.4172958058168914,0.8332767590663073,0.3872848711752626,0.6210533808842478,0.11285670769703754,0.7005730648187375,0.1829514337653898,0.8204288199543615,0.35937220691836624,0.8041968621873913,0.5255482614526504,0.9325752431151769,0.6576947214487894,0.8971664886087707,0.5856841539118619,0.778795192643899,0.3253223755816686,0.7963623561083227,0.44935617026802704,0.5746336996336996,0.8499486698123638,0.5123719647880437,0.8320542730844793,0.41813739516025483,0.6763716801941453,0.4414414045196208,0.7244085901858239,0.5203895941833874,0.7381928918581644,0.3651626456187391,0.906097516174357,0.7071221486300268,0.7878456035515556,0.494104192150012
15,2.9403574370071275,0.6739180215250744,0.8221505142778189,0.4261779038435929,0.6335437414088655,0.11986333565195582,0.838996052985783,0.5473090976274152,0.9769346465852546,0.6346446442106456,0.8820218092789502,0.592325252972044,0.549716190277422,0.10851630901290864,0.7841051427227907,0.6716401770030432,0.965049515672412,0.6523494457789321,0.6915090876796454,0.6048662511031787,0.7779282802468319,0.5049168601423053,0.6491780405434817,0.268894759994231,0.6573113929040466,0.09800577455743371,0.9971385506430056,0.9929752461119542,0.8336271874941386,0.2750575049248339,0.8127609066569554,0.31422388130225,0.621069515925048,0.18454532361191817,0.7143580160987715,0.16521377384417008,0.8516062934377026,0.43573314588956985,0.8255536896110598,0.5549671357058781,0.9444070449899991,0.6756852610677965,0.9018006336721347,0.5238892968846998,0.7336055763393111,0.25647506428611616,0.7938350831568832,0.43673979297849425,0.5373168498168498,0.8063114797635416,0.47797788107728184,0.8259039983008549,0.39460115919890315,0.7082372143467464,0.46319405246085055,0.5981295204183821,0.4404313248792244,0.7320731447141926,0.32544272596527835,0.901416187240073,0.7352834979158409,0.7620119241306318,0.47282177358289657
16,2.8332705262435063,0.7045263720326692,0.8235134302104673,0.39672609201179576,0.5804159463166632,0.12902023730233808,0.849041828516771,0.57616788763837,0.9948295830151841,0.8405094363668713,0.9299038851094118,0.6696520593645541,0.5617710675356462,0.1393453773514701,0.7119080752312624,0.5635885797704407,0.9813897980697618,0.7297875713456046,0.6033785189892673,0.5109784031241831,0.6620368594815716,0.4089412548427068,0.6366921120956082,0.2576112942849375,0.5482923612731736,0.08401506504711355,0.9972651783051807,0.9925883057375551,0.8389108684060332,0.3822586159854972,0.7571948605088386,0.31729565585972247,0.5323844505662687,0.09719257177778996,0.7135315166737276,0.2612206978969672,0.6946860667404713,0.3553058869030785,0.7986355070746194,0.561468642009669,0.9299939084292846,0.6383333151920776,0.8484679269803237,0.487686693393315,0.5701177979004728,0.19749234668968565,0.7529255248831823,0.4362357268134428,0.5082417582417582,0.8370177291594648,0.4969721556334137,0.8937088488291828,0.4719026916902808,0.6462610621844718,0.3795834697947068,0.5277484143763214,0.36401446898371875,0.6243433838636238,0.24303191553347026,0.9059303123754464,0.7552706180786298,0.7391682917980852,0.45179588661903675
17,2.7958581885457283,0.5933898175711778,0.6681445013059548,0.2949595773693489,0.6307528578559749,0.19349720571081644,0.7200736342067963,0.47253909611728456,0.939754482702074,0.45419229560638286,0.8253756256089451,0.5289962555399063,0.600465163344749,0.1460174190828684,0.7178238260798768,0.6168798806807033,0.882841565318476,0.6286771920126256,0.6570383362620332,0.5738820136835759,0.6970105083135343,0.45702778312986436,0.6864980401952505,0.30303319207675417,0.6046022820984684,0.12752530842137924,0.9973859293244703,0.9936227403487546,0.7802377271229176,0.33058986610449254,0.7576991582798125,0.2721903153763562,0.5691493274298066,0.11112936210934113,0.7549313835259941,0.22374124234924492,0.8016201100812835,0.43761682999148677,0.7997019531900086,0.5777663430652903,0.9332676011006954,0.6683681355852166,0.8461494625184309,0.5198376628132566,0.6659604856416013,0.2901298381907502,0.7516583618866889,0.41919179797116823,0.5226648351648352,0.7069991040074117,0.40047068409892905,0.7812632745712315,0.35141853969658476,0.6463960557339278,0.4239955059100381,0.587219594970513,0.4161269579944103,0.6539464186035637,0.30478158104135017,0.8961673215586967,0.7206395842357397,0.7119986282408908,0.43623880882950866
18,2.6901967119382597,0.6869704602702084,0.7670790454706087,0.33408773626193955,0.5790325815343491,0.1855818320778669,0.7519498066288473,0.4639084188840005,0.9542872004058647,0.5077155609017079,0.7319952058404327,0.466307796642004,0.5117615808596826,0.1294389768428929,0.6725950382896609,0.5449494607805996,0.9365010398180705,0.5863956028223093,0.6067154482621752,0.5014180515873797,0.6397002205174314,0.33591206249927563,0.6074211072277385,0.240064815906816,0.5125053124180895,0.08443043927019135,0.9990372659752899,0.9975630480359404,0.7842683969228378,0.35398513547544896,0.7436870985943356,0.30483974438696054,0.5708034063918489,0.14546297366896555,0.6068922865097137,0.17400681179172853,0.7444186842731837,0.3971247843932675,0.7903357523370533,0.5642507114734931,0.9365855271694163,0.6635530866019678,0.8964051846616495,0.5773614749061416,0.5782379349074934,0.23311029717973603,0.7237370511370806,0.3996122191995743,0.5260989010989011,0.7501356179257729,0.4237733365899542,0.6525895369829555,0.2864232894383926,0.5973182304186488,0.36333435631434013,0.5283573495048403,0.3466160367256301,0.6182265592350024,0.22555856959012854,0.9030180222797489,0.7476728107949662,0.674940886057828,0.39889639990890197
19,2.6210517946358594,0.781696053736356,0.669382866617245,0.3043325188326745,0.5947059581301593,0.21512555374696996,0.7984599640530933,0.5074480303377791,0.9741272887531452,0.596311978574804,0.8072169529299628,0.49819898366442145,0.5418346598868556,0.14544028914315066,0.617978629122162,0.5282539024962254,0.9294066296413346,0.6057032099722095,0.6321070432822342,0.5566319364682668,0.6430300957159547,0.36476476979640327,0.6201011578016168,0.3010389886018662,0.5687526134359522,0.12823117338340462,0.99946581316171,0.9986231464327512,0.7281066369061177,0.3472423685184789,0.7014328650782411,0.3217397928435434,0.5917684004717128,0.20987259433481925,0.5753041215275676,0.20169523054274638,0.7334837232986844,0.4224295560495587,0.7872724094050326,0.5774907234406865,0.9022033287105922,0.6602083240425888,0.8533526194816518,0.48829880967868877,0.5957583015994201,0.24917734995230897,0.7211478217732021,0.41946632867519756,0.549908424908425,0.7782544601535814,0.40945608235126424,0.7477906135506823,0.3260666252612376,0.5432962663545453,0.34984844804942805,0.5620070657616558,0.40202709391646174,0.6155734997998077,0.22807995047045512,0.9057086320942722,0.7242611784779879,0.6921050896190909,0.40662322975447246
20,2.5766980375973163,0.7984123349362644,0.7814100890653191,0.4159437047117157,0.6494908632049854,0.23575557198299069,0.8548113919362479,0.6125753931415684,0.9676164170155632,0.6237418874106397,0.7276976465904869,0.3832305051154956,0.6597945185986281,0.19530413110287773,0.7364466548967092,0.6530843166190293,0.9571367322087239,0.7051337696341872,0.6651725631054733,0.6044667289732956,0.6491937884254239,0.4024627813325522,0.6705820348887436,0.3263569965604095,0.6202570628641273,0.14035920367016563,0.9996139745224584,0.9988103850003363,0.8479686549607316,0.43329513319675034,0.7916403465192589,0.38160661217511416,0.6495497611776682,0.29710568426900996,0.7170326968468196,0.23282727390360594,0.7605520922221856,0.4490042709220697,0.8251265396143378,0.6160452425949702,0.9297986495754436,0.6744791922559639,0.8593264564338944,0.5279870289310398,0.6126020331520298,0.2903785387752981,0.7696736803556935,0.46363428873995843,0.5586080586080586,0.848895073085654,0.5115753189242593,0.6655181397015876,0.2341624906292875,0.6603504003018947,0.44604147288022333,0.5873570156893291,0.4254336709448058,0.6294075184629907,0.2620332248869165,0.9021536956442968,0.7141920974833785,0.7156136404809588,0.4322397126248118
21,2.5560599159133424,0.7736813983665369,0.7086918730553495,0.31497709682215863,0.5826448836729285,0.20620850519755102,0.8039032037035007,0.5044058048048031,0.939073173481467,0.5141523819050202,0.719193067088516,0.44433899288998785,0.5429559849857541,0.14413150811454256,0.686849391042009,0.587817610818551,0.8551731225261502,0.4477754532574947,0.6093018495758751,0.5284124170218751,0.5972610423035258,0.32194228436370115,0.6446813383594696,0.2940297610587056,0.5758916136679535,0.11040730778580087,0.9995645687461998,0.9985494458193201,0.7728968437919512,0.40100636985657495,0.7269025251605623,0.2892710539993087,0.6806823224018432,0.24774014814576328,0.692046314228651,0.25320549815629123,0.7438227437594827,0.4038590463688588,0.8008837180372954,0.5915518760961097,0.9261441284167141,0.6780810233433626,0.8080384133436653,0.45420841683568447,0.5779445803354781,0.23683252058074034,0.7270248500765611,0.4078592965110094,0.5496794871794872,0.7781377808466563,0.41044943006692436,0.6377552036319227,0.26369829691811336,0.6113742803539899,0.39915635355368034,0.5412612662735061,0.383252390346862,0.5757442915968916,0.17921065174838285,0.9024329977011678,0.730434081172557,0.6744509700673559,0.3943668673010867
22,2.522917717624717,0.7861231967025418,0.6915088693327807,0.3076075203202843,0.5641562865512056,0.20434652438433326,0.743894915610374,0.46092456201825477,0.9203852125920496,0.44250484134972806,0.7137998474478747,0.32243980336913025,0.6230402899128173,0.1650201151111899,0.6965628534821666,0.5666685543657669,0.8629457902285832,0.4515798164077635,0.614800495343787,0.5211337197447422,0.6475666055746735,0.3525597865590111,0.6574941520604904,0.2887492407955874,0.5624336589335197,0.1047998360069606,0.9996976607155491,0.9992745490102913,0.7725682675019628,0.34455563044135995,0.7034901452122808,0.2981774193115037,0.5878764150786702,0.2092515843209278,0.5904863674877444,0.22191567838852244,0.7573460226314885,0.4130489681669234,0.7986371881056965,0.5937516837863203,0.9161012515102547,0.6183194268605772,0.8365177967284072,0.4761561913759957,0.5981906838214889,0.2508078004418842,0.7208863989029028,0.3915269660244116,0.545558608058608,0.7347435275637448,0.36984910232784074,0.6108260765677269,0.15548653312108432,0.6254162173273425,0.37032167425113793,0.5434085345499055,0.38767386270497595,0.6192213834603166,0.21206118283909553,0.9109057891516061,0.7624131134195832,0.6740869214367736,0.3763009114439529
23,2.4732429462938343,0.8013892069307686,0.7133150260526686,0.3725452713750429,0.6756532921886003,0.26276600684616347,0.8339636363893628,0.6093109492197761,0.932970087988562,0.5101877075095337,0.6398802333177804,0.3553203996515658,0.6283547257876313,0.18003742471987305,0.6799777089792839,0.6235589842768569,0.9252131019286913,0.5829126458478469,0.6692361925718963,0.6165014579796425,0.7039094097810981,0.40163332609745744,0.7129848700260704,0.38688444003654315,0.5465328473397533,0.10685189215937581,0.9995979536745921,0.9983168448285963,0.8412283193239033,0.46740157480761557,0.7589475387945859,0.3482954028394597,0.6354683788792316,0.3153549522117588,0.6965525328330207,0.24066001059534484,0.7424664533631796,0.45286112900349806,0.8573349269507946,0.6403355571015925,0.9607761402527285,0.6932312678832857,0.8790643543376148,0.5706472748888834,0.5883998944593476,0.24869802388916165,0.7555376193281998,0.4538323883531307,0.5556318681318682,0.8071195275010513,0.5063426909480359,0.5610397971645515,0.19465651203166712,0.5949658144176179,0.41969066666960525,0.5920482363413819,0.43948349083713695,0.6987067869573985,0.29908073432221377,0.9056545330472205,0.7135413721531317,0.693255782571537,0.42879924449363177
24,2.4760468658368358,0.8196320891534997,0.74523461019309,0.3994465621739018,0.6624150767730858,0.23748051507820447,0.8609307585179348,0.6141304628080783,0.9008578500453522,0.44996142587772997,0.7854426387387367,0.4995355031410678,0.6062027049675398,0.19580914110206393,0.6901246186516459,0.6295632688748874,0.8340443729377679,0.537560418984672,0.6641120875517966,0.6175171483844476,0.6481172857799766,0.42166939872636156,0.6567418555764867,0.3691656166143028,0.5753297463247649,0.1450284014820796,0.9996614494017689,0.9984990842824369,0.8419172912184052,0.4795639967584951,0.7516685662132482,0.3733042901321069,0.6420341540848941,0.3304721090714534,0.6360478575319253,0.14343626659070774,0.7434803690694882,0.4698451661723957,0.8468281465119445,0.6597820250204287,0.9459646924809965,0.7291476910687971,0.8906052571075233,0.5438984670445509,0.6243354430298207,0.32748441013989527,0.7523680378503724,0.46237733497859385,0.5618131868131868,0.8494175177435267,0.5221821885141243,0.7375874462379864,0.32076927000577105,0.6173709085832887,0.4334556023098182,0.5964131523311449,0.4691732354945419,0.6312966323855616,0.2892816547758252,0.8970042212354109,0.6888365641147358,0.7215149797528199,0.4539497525358027
25,2.464095855175962,0.7812380734295092,0.6613777490813145,0.2847838911990494,0.6017523352515015,0.20634747453269697,0.7714713965277736,0.46789061414173905,0.9612860576307145,0.5454405456581023,0.6759262974779874,0.3997736186651922,0.5855489465046342,0.17453993556772596,0.6211504628464016,0.5267488521138569,0.87516227128975,0.47262900481236253,0.603982269778212,0.5229724318320415,0.6212754835674676,0.340792645567384,0.6197302413978534,0.2539945444650949,0.5270115501037161,0.09559313260519499,0.9997875313756762,0.999519585757909,0.7898612275958531,0.36839638983652273,0.68064388259828,0.2716416923690548,0.5920594244061474,0.19429345157314915,0.6686493826786903,0.22044704348276653,0.7280689893690052,0.4362449807666847,0.8104107935643406,0.5706496346016302,0.9445728149122999,0.6856190670370307,0.852945193321093,0.5026965650585629,0.5830470431482446,0.2510779687280379,0.7170782429284981,0.3996405941078086,0.5288461538461539,0.7593428342796837,0.336456705066492,0.6174990375935857,0.24663200184705675,0.5524049561040861,0.34905143620443674,0.524549349059753,0.3733667927070089,0.5974071443810259,0.21668537913169159,0.8959573417690941,0.7066614240812148,0.6578601105312047,0.37147562317298344
26,2.462039110515147,0.793069231356385,0.7949589547579001,0.4055903917839502,0.6472145327959924,0.26113109486504416,0.7445602977346233,0.48441056125538107,0.874429765449244,0.4312313172387022,0.7533647599218065,0.4788753632376605,0.6632084570553991,0.21339999472723142,0.7186584370857452,0.6539964009213945,0.8953129730840717,0.5621641873668518,0.5808313090619854,0.5006423090682143,0.6118598786502014,0.3716290467573298,0.6552141588108173,0.32625703623971863,0.627057129111093,0.158347414111254,0.9998131227562418,0.9995476713598184,0.842505781067039,0.45239308420490665,0.7792719378896975,0.37977214640955315,0.6643062051095877,0.27923309647505734,0.6157660912061974,0.2502027328577756,0.7581760640119014,0.4624661917421177,0.8361604913990046,0.6208848458901277,0.9356300857875146,0.6876252657493899,0.8349714441423319,0.4661158059319538,0.6363650418233178,0.2959502622131141,0.7486198599414415,0.4428121009275703,0.5519688644688645,0.7370745014789537,0.3942672429343753,0.6530566359581587,0.319672089959352,0.6532488191899466,0.46112218495415247,0.5257310559697341,0.3706352304643494,0.6195937119159719,0.23808530400552813,0.8997373554171515,0.7250355927429694,0.6814070133216528,0.4181362741767878
27,2.428735561010883,0.7806274330203801,0.6576531873002208,0.30844814116387126,0.628062249951326,0.25101460723113583,0.7857707006887642,0.495602903685009,0.8855482502216369,0.43252096420393,0.6589920629577215,0.40966010485184023,0.6236868068797373,0.19212747740298716,0.6725627387537003,0.5960422182841486,0.8859917389161581,0.4937421172981537,0.54542247157388,0.48049478946765983,0.5655986092048111,0.32714767523169375,0.6471644943516237,0.31046641997044516,0.600051225055588,0.11826128389071257,0.9998259394345349,0.9995880993282777,0.7810275160034404,0.4222416991079816,0.7344077948100042,0.31367241953672625,0.6762405592215317,0.23082142715960333,0.7142237335834897,0.2775776048170047,0.8025693743232887,0.48385599613442865,0.8105146812849129,0.5959829368316888,0.9168898697937293,0.6720829928319014,0.8672249234765896,0.5207819673976256,0.6307074341485335,0.2862412526220474,0.7313698346334192,0.4190170499294943,0.5483058608058609,0.7874756083650356,0.4076091070250686,0.5905375537620134,0.24417766528892387,0.5973163895975198,0.3991170021776071,0.4801087682207633,0.33519346966117924,0.5468610723877828,0.19501153005790248,0.9012572870158261,0.7175838359837702,0.6505927798914901,0.3831154350324086
28,2.4328124329348793,0.8093275322494466,0.5574601006236166,0.2269138784198021,0.6511406537972265,0.23850270908713248,0.711165791222828,0.4178059707897838,0.8037058199539815,0.31604313809713674,0.7108748963439706,0.41076451173077,0.6471481470940731,0.17392502800441273,0.6981026844210254,0.59041113585432,0.8154122917325071,0.4480734241743108,0.6250972163508244,0.5384622132804244,0.6891387965923297,0.4020879003765401,0.6792713229636347,0.31251423554264224,0.6170319716890034,0.121927535909094,0.9995578525829021,0.9980592017767662,0.7826030744826515,0.4001656231989041,0.6666947664681697,0.26855899893055474,0.600210704650451,0.22668495685455528,0.7121349785147976,0.2744284436310342,0.7664782157586206,0.41992143759041606,0.7970921524426222,0.5760751317376182,0.9002640101913749,0.6188508626931358,0.8699919169793869,0.5293635151245818,0.6264106979468272,0.2642304839548412,0.7239540028546738,0.39880774257994445,0.5551739926739927,0.7079995855272381,0.33467444918117834,0.603419695481336,0.22861934131019074,0.6241903838572259,0.3954974884520744,0.5385753032157561,0.3813037950206301,0.667074065306528,0.2549369655567179,0.9015486669994806,0.7155996825171339,0.6738012833979274,0.3851052870063209
29,2.4093098484298743,0.8074956110220594,0.6956481016492495,0.3685753138409294,0.6033475963853923,0.23628042389339213,0.7789109594201802,0.5310893617846524,0.9482599582861448,0.528557674388607,0.774345294331075,0.44514185729296324,0.6165482413283876,0.18421789651213996,0.6376200750120951,0.5583436905159349,0.8322977879831949,0.4613138268791198,0.5770515130786749,0.5195108397690764,0.6314902172103802,0.3791214682995132,0.6410312731665797,0.3260023649636138,0.6188344298073021,0.17609589337454495,0.9997803534761517,0.9995505199186264,0.760747894566199,0.4089274272270373,0.6953850384667549,0.32134772222492136,0.6487959225802777,0.3108660920667006,0.6999039218059675,0.23885004972440144,0.7464035885038572,0.4483382689914909,0.8145425998490434,0.6179478920052444,0.9153033652768674,0.662824167382023,0.8337786418298282,0.5256883239106034,0.6207028450884303,0.32104029134246137,0.7313968008682743,0.43498324392309085,0.5418956043956044,0.7773436649666898,0.4601974431749444,0.7124022659693092,0.23947897651986355,0.5580283578494913,0.3572532546669487,0.49625681540002226,0.3804304630348133,0.6177782453802338,0.2701097474105588,0.9076967091675491,0.74931454950489,0.6782510097888825,0.4094640723853365
