epoch,train_loss,train_accuracy,train_1st degree av block_rocauc,train_1st degree av block_prauc,train_abnormal QRS_rocauc,train_abnormal QRS_prauc,train_anterior myocardial infarction_rocauc,train_anterior myocardial infarction_prauc,train_atrial fibrillation_rocauc,train_atrial fibrillation_prauc,train_complete right bundle branch block_rocauc,train_complete right bundle branch block_prauc,train_incomplete right bundle branch block_rocauc,train_incomplete right bundle branch block_prauc,train_left anterior fascicular block_rocauc,train_left anterior fascicular block_prauc,train_left atrial enlargement_rocauc,train_left atrial enlargement_prauc,train_left axis deviation_rocauc,train_left axis deviation_prauc,train_left bundle branch block_rocauc,train_left bundle branch block_prauc,train_left ventricular hypertrophy_rocauc,train_left ventricular hypertrophy_prauc,train_myocardial infarction_rocauc,train_myocardial infarction_prauc,train_myocardial ischemia_rocauc,train_myocardial ischemia_prauc,train_nonspecific intraventricular conduction disorder_rocauc,train_nonspecific intraventricular conduction disorder_prauc,train_nonspecific st t abnormality_rocauc,train_nonspecific st t abnormality_prauc,train_premature atrial contraction_rocauc,train_premature atrial contraction_prauc,train_prolonged pr interval_rocauc,train_prolonged pr interval_prauc,train_qwave abnormal_rocauc,train_qwave abnormal_prauc,train_right axis deviation_rocauc,train_right axis deviation_prauc,train_s t changes_rocauc,train_s t changes_prauc,train_sinus arrhythmia_rocauc,train_sinus arrhythmia_prauc,train_sinus bradycardia_rocauc,train_sinus bradycardia_prauc,train_sinus rhythm_rocauc,train_sinus rhythm_prauc,train_sinus tachycardia_rocauc,train_sinus tachycardia_prauc,train_st depression_rocauc,train_st depression_prauc,train_t wave abnormal_rocauc,train_t wave abnormal_prauc,train_ventricular ectopics_rocauc,train_ventricular ectopics_prauc,train_mean_rocaucs,train_mean_praucs,valid_accuracy,valid_abnormal QRS_rocauc,valid_abnormal QRS_prauc,valid_atrial fibrillation_rocauc,valid_atrial fibrillation_prauc,valid_incomplete right bundle branch block_rocauc,valid_incomplete right bundle branch block_prauc,valid_left anterior fascicular block_rocauc,valid_left anterior fascicular block_prauc,valid_left axis deviation_rocauc,valid_left axis deviation_prauc,valid_left ventricular hypertrophy_rocauc,valid_left ventricular hypertrophy_prauc,valid_myocardial infarction_rocauc,valid_myocardial infarction_prauc,valid_myocardial ischemia_rocauc,valid_myocardial ischemia_prauc,valid_sinus rhythm_rocauc,valid_sinus rhythm_prauc,valid_t wave abnormal_rocauc,valid_t wave abnormal_prauc,valid_ventricular ectopics_rocauc,valid_ventricular ectopics_prauc,valid_mean_rocaucs,valid_mean_praucs
0,5.403205904867092,0.49309213037172733,0.5069482639968328,0.035886334673893766,0.42698322108738296,0.13775126011896127,0.6704773852795349,0.02751351824066013,0.4786121299762607,0.07474949968042537,0.7232227221106041,0.16511142197140186,0.6450862114938547,0.09615482022948121,0.9332970197936634,0.505174594696225,0.7155192532088681,0.03494407223300728,0.5841447446227301,0.30511653539215305,0.8380336940835348,0.07240325608714371,0.668343877676477,0.2023442060436022,0.7338349451292594,0.40961712259211325,0.7961530897427305,0.24386024789113975,0.5025913922616341,0.036271681973635325,0.5886202016289362,0.02372894161041967,0.5058909274090905,0.01906661281551902,0.4764980753509291,0.01501887102976637,0.5471921469807305,0.02974139141003007,0.5411282757368516,0.017676792862270568,0.7340029336470899,0.07819125123666315,0.5212159570193975,0.038137158830188166,0.6394549476529339,0.060006351572888535,0.7836274195596568,0.9464163286791759,0.36796485720106087,0.02834846406528428,0.6573772555256174,0.07552127801821137,0.7199221810384019,0.19012388957034643,0.7087732123420486,0.09559717684017563,0.6301820867243004,0.14683233630980674,0.4965659340659341,0.4151002396927119,0.13286748341355276,0.5201485136014112,0.07940301821739452,0.6524450151682295,0.10927529462018784,0.9289578134126267,0.46943843162898363,0.5780566451341729,0.26833762927436783,0.6772715569703212,0.21038930447070814,0.7327143373762102,0.40018937505997254,0.7996145202252675,0.25893724495873277,0.7765756612106623,0.9456847470089631,0.7242345747619738,0.19989831990158372,0.7125515322177152,0.1215647732907954,0.683424582706482,0.2905441474404766
1,4.913400722654637,0.5051522784520266,0.39527559565089154,0.03152914934254612,0.4077513385705871,0.13390687174999458,0.6643572770111124,0.02792237812312562,0.6702050392172191,0.14871682236121025,0.8477112565999624,0.48276365358829765,0.7651140427226608,0.27350478343140233,0.9167090329293315,0.34872203265954244,0.6614739764667192,0.05154702014607902,0.7928669344650294,0.5612577356863464,0.9183025660632554,0.19314968882002462,0.8100973598259035,0.35953105275671665,0.7605573021992157,0.4981923948845869,0.9027591667367204,0.5013516707094233,0.4673871479935524,0.03326692674364327,0.6452789797967285,0.03993578117741356,0.48653339621276476,0.020871705555825,0.4585726499761339,0.015776506206279912,0.5957114010672855,0.03659191628702343,0.6418235187314653,0.02217396350322435,0.7795776104332169,0.11597188221981591,0.5588099476695025,0.05333290905721293,0.633247106293275,0.047498126876429035,0.7886385517771916,0.9470517746105298,0.4713291033938861,0.03846909628699287,0.737219493379102,0.13501905507055623,0.7920626590616567,0.27550240236150914,0.8667228356114557,0.2940689191976787,0.6828183440687341,0.21065282294123813,0.5602106227106227,0.3933620162268957,0.12746180013908442,0.684687234151859,0.13555358223149755,0.7443108366657474,0.24201358902566114,0.9128715220623373,0.3043694356555363,0.7870327957624297,0.512694412072404,0.8019013158454689,0.346637186963913,0.757805023923445,0.48604240767168544,0.899874039588393,0.50357695028229,0.7784580427821942,0.9459690054930852,0.7913386858588815,0.2834519884230625,0.8380317070447694,0.25313262120906205,0.7626975654465837,0.37644572537884374
2,4.639443645731346,0.30951835737729944,0.36339844175547953,0.026646388585317135,0.3270441801770606,0.10899301114471964,0.5102310438768176,0.018590730614620347,0.5251384267197086,0.07778404664605935,0.9104990375688127,0.6593161488645668,0.8340827485521743,0.45772843348405373,0.7914217804340733,0.2550321093247283,0.39282585941378667,0.01454534653809484,0.49936484546159204,0.3315107305656234,0.8494339013841404,0.12476138203948163,0.6448404944752952,0.2650213714234598,0.5821493329003274,0.40560788329386516,0.7979230594704921,0.2307987369232335,0.391836557708264,0.030120494873527043,0.46602738572911706,0.018079569419213147,0.49039609352600877,0.029346434375386383,0.4463544816186085,0.016345766744166372,0.539854737176795,0.03145695092170702,0.4550420247533741,0.01427206324907786,0.7136616191020746,0.08530272191341759,0.5741744876637535,0.04853092720872612,0.6779195727306583,0.07286615799361765,0.8205243304693934,0.9574076151784089,0.45705682415893023,0.055020670577528165,0.42015750447890715,0.0412359983564332,0.7648150511521629,0.28697615018996875,0.877635396568375,0.24575822842941508,0.5971781192231919,0.18181689143994142,0.35554029304029305,0.3251091654882611,0.10737470770826552,0.5559917000958686,0.08024256665443294,0.8237716750551571,0.4015763036229835,0.7874459061222322,0.22642879663757573,0.5059858901060467,0.31872690111528074,0.6272299580393392,0.22363212085733464,0.5756578947368421,0.3974250913489631,0.7909667973031029,0.22118438734239662,0.8104565258019614,0.9552001539456334,0.7366299627683728,0.25950872740761827,0.8569761287468111,0.23619282247821896,0.6723837822058177,0.3115902344653367
3,4.408240500246966,0.5217158995496527,0.382570518901138,0.028603818581263415,0.31550922326301106,0.107110835105553,0.5707003705075412,0.020602536698913067,0.7026559040547983,0.17520960314202846,0.8824115293758592,0.5820369856082253,0.8186389484555956,0.3939638384043982,0.8804007540635095,0.4172027602211398,0.43596683458083124,0.018089622479431293,0.5590748383946015,0.34175353970587047,0.8649085159000448,0.30627396776860716,0.5630825917034684,0.22468890262569613,0.6969900959238656,0.5022428062069029,0.8392110648950375,0.31953503649122633,0.3821219130480204,0.029006908481805767,0.5927308669113516,0.025729729896758646,0.5929998177925568,0.037075502846837624,0.5221010558781414,0.021674438789845412,0.5261430371366946,0.03499158210323475,0.6399541548145011,0.0328591804973716,0.7508791382585468,0.10666816678784033,0.5929596737454885,0.0526437913482587,0.7435433984392772,0.13053834832774874,0.8394741667670416,0.9622994737470365,0.6317997428367996,0.13658489540704086,0.36456307690167067,0.03720493623242434,0.802928085275079,0.3608286113112683,0.9014949624877845,0.503484063472726,0.6442894177893428,0.2188482919366464,0.559981684981685,0.31959161978116757,0.10713527970926218,0.7264340452802784,0.17739770693068913,0.8023724058880308,0.31991046862317096,0.8952395728242978,0.3979217355289047,0.5572602752334391,0.3096899678689371,0.5234448808844934,0.1870628993715779,0.687765105151886,0.4962496909038097,0.8244480099131721,0.3023603883461573,0.8312694654539082,0.9604564097246623,0.7786911112097631,0.3242972135437685,0.8776272644197172,0.4423411306668763,0.7112857960036504,0.3658929901107106
4,4.249480168115691,0.3659262651705977,0.378298598656049,0.027650801449604582,0.2927417224512029,0.10219293076854577,0.46797400738087325,0.01616370063972464,0.7232094376017661,0.18588639848279068,0.9289746506980217,0.718846927304015,0.8680571762103049,0.5014979864482118,0.8699837323625247,0.3935793201972659,0.4891105608839052,0.01990045088389856,0.4753080095968047,0.25562712088959016,0.953998050755498,0.5084764488303075,0.6393811092864433,0.2112102142286004,0.51975883252658,0.3128118414915354,0.6715106380258724,0.18780768691022293,0.3599693891422866,0.027389279059159784,0.3930048200142485,0.013563381394995636,0.6003169203726678,0.04256673845768208,0.43203557210071863,0.015074406186869959,0.3938423464145804,0.019370526041726024,0.5307363220964716,0.02519372307994999,0.6288939907159108,0.06016859473194842,0.5760335399320528,0.05052831488059119,0.7149100671842115,0.10343003764659107,0.8587653322333224,0.9669309493278821,0.6618902445015482,0.20499131778443141,0.33159373342069987,0.03388151500612159,0.6992271279743514,0.26251642523845814,0.925897146378637,0.5360285103158325,0.6068675214413909,0.21493650176579826,0.3711080586080586,0.3038035923819839,0.10390700926128692,0.7496985058953525,0.18957724651620236,0.8419660093767237,0.43510304991918974,0.8658770509212552,0.3670296683026541,0.4720745900721448,0.22984645595357672,0.6007726123703092,0.18040572482170075,0.5148314231667965,0.3034224425993338,0.6635834129718767,0.17223429927952338,0.8433961996074941,0.9633727409940325,0.6735175142687363,0.22244104192657874,0.9046380029689173,0.4742317069028788,0.6758326285455992,0.331051944225178
5,4.138742280055545,0.6813220364857644,0.4357842736739178,0.037121458860919845,0.30475358883336706,0.10624243486361604,0.5924241381783794,0.022442783297093594,0.8312061121060987,0.32628986735384424,0.9134604038220482,0.6634143846622527,0.8543443576996633,0.49812854915815113,0.8991897158443833,0.47849224524791095,0.529226709419953,0.02404766475319778,0.5757167844209032,0.3816711482203289,0.9292503806772852,0.6610585394913144,0.7378536930203894,0.4229359535774501,0.7942905282764967,0.6220598766503309,0.8852072924547708,0.41894187837118113,0.39038411570381865,0.030732608116896973,0.6873596614834804,0.04632560729052189,0.630329567712841,0.042256316913621014,0.5136505089061385,0.019100893054693216,0.5132984768996045,0.029012035777608074,0.5035163105973491,0.019595871692275137,0.7862045593185875,0.14693726954878383,0.5808564180926012,0.05003863404036263,0.7916701772537548,0.1700247845347376,0.8659749813972742,0.9676650248477203,0.7346294878286347,0.18025426746687237,0.47112151630172777,0.05456134047622688,0.8394741416584062,0.4092872159744733,0.9236276406814352,0.5853789533805589,0.6857335386023449,0.2745932447267757,0.6481227106227107,0.3074372937790214,0.10586852684451191,0.8467373766486395,0.3327235601743598,0.8293768098455598,0.42974583620726564,0.9008580350979664,0.4621179996492403,0.5722505418917199,0.3483311306956784,0.7070717118758033,0.3487541067602505,0.7804478691443195,0.600187854908636,0.8739524974354926,0.41230223620962586,0.8531939100748398,0.9650148533886245,0.8191685382320835,0.371137970174182,0.9007676594759323,0.5570892295312247,0.7628420221364888,0.4484793913221454
6,4.012454514867085,0.4882833371498359,0.5095025481396456,0.0640298215027963,0.3191751182888669,0.10773553441929229,0.5935762102246028,0.026310054791079524,0.8696982557508153,0.3144618964857806,0.944882724518609,0.661407430083097,0.9200666168605824,0.5538911123179335,0.9342342264443719,0.5679799185718197,0.5313860349805364,0.02478823657297922,0.660905612749368,0.46691045342613124,0.9606610635095683,0.8033856916236596,0.7562774447967773,0.4296752842397546,0.6816695269317521,0.554736402334742,0.8166694623581767,0.36855521092465615,0.4141481294964511,0.031412768623153384,0.636412459904503,0.031504452190517424,0.6686922730646488,0.06404115674069906,0.5091500446974175,0.021795557568894862,0.4928908535673863,0.03112802870844264,0.6250427434485264,0.023344680495623608,0.7796867532277939,0.12367832763424397,0.5917970726524822,0.0584059465919906,0.8510385580418001,0.27125898963202144,0.8813120564130416,0.972991843116043,0.7940614689481659,0.2691603623827631,0.400194448860581,0.04144976087972539,0.838855528649771,0.42666959227459117,0.9148842878377519,0.585869456426706,0.6998841305319997,0.29246585076144954,0.5309065934065934,0.32335810492322814,0.108741001633654,0.8769695075175433,0.3032609062925036,0.8801785283370104,0.4270829048837675,0.935848975203101,0.5480508931472561,0.6476965958615273,0.4226807420730685,0.7240065196483135,0.35546422784672443,0.6710380271503282,0.524105043467686,0.8134166834711299,0.3365772036419485,0.8632196776089127,0.9687376955719713,0.8203441612240171,0.398144840597803,0.8802447082563194,0.5090391491274453,0.7669383172001301,0.445625873480348
7,3.8821051035225094,0.6978856575833906,0.47468782632262796,0.06291648922652579,0.31721248408668956,0.1090422683682798,0.5494062510521625,0.023860594333847872,0.8176202100711475,0.3382333474738901,0.9123159165172511,0.7143611472557667,0.8535706632379727,0.5467082522160436,0.9145434005423442,0.4264384853117563,0.6004240544155733,0.03214918768895404,0.6464274301614578,0.4303639751558489,0.9710490780869115,0.7513906123362,0.7082769029217248,0.38190878441144044,0.6681864021846888,0.5345279770400391,0.7927967749212654,0.2864712547789073,0.37459643692562783,0.028296949780452704,0.5585531128887988,0.025487997230402144,0.6286558717688324,0.053971956577913795,0.486165905724042,0.018544315255024604,0.4370140208758954,0.025905718156269436,0.5595522150941112,0.023754241324413228,0.7700405635800226,0.16425222139132406,0.5892667846750483,0.05888566321926074,0.8194072556252243,0.19335274328697785,0.8582729708320048,0.9669261359949968,0.7536796903299169,0.2465316741619281,0.406886334314961,0.03992571966180522,0.8392030362340605,0.444217204962728,0.9109798051446572,0.617482697507055,0.6747700517975933,0.27947805978177964,0.6964285714285714,0.32753577839957476,0.11336752894924979,0.8251856637702915,0.3119740493748379,0.8404028630033094,0.42793330153987763,0.9066374515478152,0.34707564133516605,0.631500437962027,0.38059127857897856,0.6624459533070618,0.2899962087184349,0.643144403026594,0.501188292216472,0.7558244269678025,0.25952868089545594,0.8374761878913355,0.9615528713855166,0.8146749092208315,0.35954575496251034,0.8641730655518755,0.5163432620592373,0.7371819218771379,0.4062815336377943
8,3.809463962745361,0.6616288832913518,0.5757531825174769,0.08954162671360943,0.41677492259990234,0.1394441263674422,0.618433408918238,0.02797910015303187,0.8753007219449109,0.33600000643354094,0.9646673262704237,0.8187376025356216,0.9391422736722006,0.6133376884854449,0.9650152191144489,0.7149033750630515,0.5760056667077756,0.02729216067369276,0.7121518410671188,0.48250144189595656,0.9760656201448452,0.6876997256737113,0.7475941475109343,0.428239535422518,0.7294396711146199,0.6021413179870637,0.799894441661666,0.3349755625390335,0.4343894001115679,0.03207929088292655,0.6339083519766986,0.031582393303695756,0.6739434647817129,0.08560496048271272,0.5360979416708067,0.026208642016858387,0.5151039405091555,0.03899276462849307,0.5087166374145131,0.023341604534300057,0.7454193916158175,0.10929757709870477,0.5910701948146915,0.07065361971008148,0.8691809912662211,0.2015708316460563,0.888954107610946,0.9738755737024558,0.8141761705478048,0.5011324874434768,0.4179626917916634,0.04387502324138848,0.8227751966072062,0.458788244520358,0.9416774144776405,0.6557173695471877,0.7144301606830005,0.3168708760260153,0.6366758241758241,0.42017971938903426,0.14513196679037096,0.8764888584323003,0.3277047290936176,0.901443136376172,0.47978154654308824,0.9633713096691977,0.6447238161637597,0.6940325181052428,0.43142316287827776,0.7084659676060293,0.3537912354868378,0.7017288861689106,0.5477587489331421,0.7774522095677308,0.3091433983087954,0.8700267803114619,0.9682108809791121,0.7862896044012586,0.35545932774782674,0.9047248375985677,0.5681680240767855,0.7822003479659915,0.4664815306365103
9,3.705707205350995,0.534386688039081,0.6247676715742932,0.1275799743713442,0.33810890733915555,0.11610015349148056,0.6182421898444922,0.028454733428227623,0.9133963247277009,0.45502731609433683,0.9509514615783666,0.7837072803841618,0.9208228816391193,0.5993095130433695,0.927586724775046,0.5847215670740499,0.5308364402197114,0.025260585176348757,0.6977181607766397,0.4980821452148178,0.9745782714488722,0.8044856341789489,0.701190312504733,0.39822180712605854,0.6741960073250161,0.5474368206873164,0.80896058514017,0.3869286330221368,0.40941704095935005,0.031094132913875056,0.7073829437331944,0.05677658561186324,0.6743095543688253,0.05617709270531686,0.5710100717181867,0.029883046125584206,0.5226474280033124,0.02841876637545035,0.4798682140047207,0.020709898321561233,0.7774282099365128,0.144825852432911,0.5939951888890569,0.070789146706829,0.8491941306915743,0.15448066405074226,0.8672335765266206,0.9702891271475926,0.8715269703672797,0.5934298412509406,0.5094605239052412,0.06807940330287143,0.8635780146122494,0.4927016522451145,0.9465061744479439,0.6913074840048269,0.7157375548539769,0.32460292061066953,0.6462912087912088,0.34227156482233656,0.11695497644728921,0.9012945307880991,0.41986526814756886,0.8748664161610591,0.4470986742430965,0.9205529356714278,0.499836803185185,0.6689464213670244,0.42843387927051946,0.6464537709271349,0.3153891421371832,0.6520866251251808,0.5036081131222007,0.7849981442027524,0.3636246202929834,0.846138713342832,0.9647124182973877,0.8303599556493819,0.3811416686359908,0.894949739289362,0.5584483194101969,0.7602653470315083,0.454464898471782
10,3.639063757436438,0.6552934890466376,0.5702488753909228,0.17413951080589296,0.3937527019451868,0.14094226076845237,0.6079536887531711,0.0279945454835369,0.8725131741062001,0.5010649743711839,0.9646896337109698,0.8260089097174557,0.9144414159605505,0.4992532415691311,0.9331334871390969,0.4799968302104053,0.45899574048249236,0.01944627984680253,0.6465408885115196,0.42568346389728673,0.9489689115392181,0.6981437859442454,0.7076424893482318,0.4129302767711144,0.7221812079806217,0.5716880729079443,0.8059038870959014,0.34652144824460335,0.4122187949728815,0.03082616675252898,0.6762988819455803,0.0362826744345374,0.7121236277501937,0.12968809553177768,0.5862011990747297,0.04250335364819845,0.5597736823247746,0.03342450217764146,0.5329640879380259,0.024709863353476223,0.7657952043212204,0.1335548436544486,0.6052206101134192,0.09161847150808966,0.8556375675507168,0.2225744423929492,0.8883258723587438,0.9735419556042206,0.8172651093205612,0.44951040441314327,0.5008230547577164,0.0591591508185126,0.8731708558887791,0.5207427657775329,0.9496510149587011,0.6955681536947941,0.7141642838977825,0.31731549793703356,0.6490384615384616,0.3898434475634584,0.144424101243917,0.8748135525627216,0.44001540781179943,0.8733312793022615,0.352156022722121,0.9251770495937981,0.40248819794436413,0.6190613959867032,0.3607411791412331,0.6626943765905474,0.30059083136301734,0.6928162901969512,0.5054953215535142,0.7826022661184028,0.32483805857828024,0.8613562400748727,0.9675943869416649,0.8213170721531926,0.3819810881047716,0.8923684765484476,0.5657165267030141,0.7632164951537598,0.4314582838279724
11,3.5721165908492165,0.6160598427600946,0.6844372171870557,0.1472377119403054,0.337607104795484,0.11639627744265985,0.6914148674385208,0.03505599211268651,0.8850856595472075,0.47936804791709753,0.9415942395594755,0.6568789211767365,0.9376921240337839,0.5725218547521895,0.9519365523521923,0.5915591958742407,0.5247121584401375,0.023341270320321086,0.6839944432579309,0.4722403951511974,0.9790257313534432,0.8246665179844955,0.6731846201931695,0.3160604054813798,0.8118718887423761,0.6867994572096764,0.8164546525278281,0.29632298566976273,0.41030369104932096,0.031724455950994136,0.6688320687325956,0.03222731204318702,0.7152000530545203,0.06691931197171463,0.5690251017400146,0.024390828324102515,0.5403748549625929,0.030215316065272616,0.5691029171457967,0.020569585148565765,0.7796701558760707,0.12532675590865555,0.639710492827881,0.12446990258946761,0.9076160220947924,0.2627714223888608,0.8882494675771611,0.9740768169333519,0.8198110315545667,0.49434058511043544,0.45526516702400865,0.048762790743020604,0.8617788659890223,0.5028492520890175,0.9116636209748556,0.6531889090272675,0.7279857322234002,0.31889934360469113,0.6778846153846154,0.34351395533090634,0.11707238090344557,0.867622101847103,0.41524620431267595,0.8727204564258136,0.3984641008412667,0.9358249150427441,0.46841555364221554,0.6558192190929967,0.4034799401051751,0.6050410244188917,0.22674533805491215,0.7674315678201846,0.6116684627656406,0.7834416125270698,0.2724747252253671,0.8604789854156413,0.9658477821416418,0.8152362451307654,0.3887668266452798,0.8373225575692917,0.5137975515461951,0.7585866036928551,0.4347253514712559
12,3.46247311230243,0.6222425769025265,0.6352925312140464,0.12130855089822642,0.38918689329251405,0.11766458210156253,0.5734391034039557,0.033364220176939345,0.9294753315148817,0.5546157451210912,0.9664817218569587,0.7933991778531052,0.9426784811786331,0.657277147078639,0.937304325371554,0.5319095287043306,0.5214617070324729,0.025129898684175454,0.6610487821708363,0.38451128009765967,0.9727819608692481,0.8623646216010453,0.7228773589124434,0.37158535133022336,0.6589941883270699,0.3881325033332406,0.812753428144078,0.3643939517552625,0.37359426784734884,0.029142648822729128,0.6507951688989658,0.031749669560543044,0.72400043810172,0.08491115244271968,0.5322651287457971,0.021874567755921052,0.49578614427099277,0.02411694630527198,0.6230852448102645,0.03446477066024363,0.7322694228118869,0.10706293706105853,0.6236751373822649,0.15702366743375548,0.8639582908552297,0.22286174275287254,0.8830561691999006,0.9733842614133378,0.8302701589158534,0.44731873314327514,0.41256771182660823,0.037495532647754994,0.8254023307181791,0.4533804598273058,0.9221282320120937,0.5890820081303834,0.7117270244328071,0.3118342835812101,0.5876831501831502,0.39318791306876877,0.12067837531176337,0.9059007511883439,0.4789846059608141,0.8763078288747932,0.4749324375195461,0.9215721738437849,0.43925692256439747,0.6237235822992776,0.32450613867383954,0.672528108535973,0.27647650531213686,0.6227075219761878,0.33754083791014433,0.7754339204666673,0.3181688128301489,0.8500513857016962,0.9638742573573941,0.7625755022204728,0.29697663672356256,0.8701491488138803,0.47440906890854423,0.7521943488172586,0.4096185999156629
13,3.3865331042205074,0.6759789329058851,0.6592593921132553,0.2270664410203101,0.35549534014094375,0.11948131621494537,0.673897004466292,0.049827701082546375,0.9322786207169783,0.6075941206652784,0.9566573709007188,0.764505741945508,0.8912967537490329,0.5832688392858126,0.9399893502296929,0.6003081919441965,0.6057577798648466,0.03635818272093708,0.6521143993292757,0.36296244985523834,0.97618695066997,0.8516849695688844,0.7707648511507154,0.42320273314828416,0.7300997095563339,0.5588975200904669,0.8425698977758304,0.45368389164572354,0.47547180298688574,0.04035731290524969,0.647653570800418,0.03531172152212122,0.7377324819601233,0.13331137621839775,0.5794194056479852,0.04008846463793479,0.5128361367966724,0.02961169804932176,0.6701060642740422,0.09134385844438117,0.7759088136282507,0.15307832016722608,0.6445959053445021,0.21889493187353626,0.8870396988421803,0.22392372288503598,0.8825367188305673,0.9733417781450345,0.8899464647265234,0.5489189505810945,0.5106340710271069,0.0625042326365962,0.8638059069749303,0.5327433977426427,0.9171981404621135,0.5973665971281558,0.7400463927024513,0.34517179489351335,0.6282051282051282,0.3632128852383388,0.11908989598304667,0.9213973304819465,0.531494663070864,0.8405881567153889,0.3761098652029032,0.9214966747199066,0.4791779792874088,0.6298544370692286,0.3107215004692942,0.7022335753376855,0.29351886827187124,0.6836299655057305,0.47220549594399164,0.8121085656002407,0.3980729541849487,0.8517585349264298,0.9645161415456314,0.8132096593635055,0.36658719709524124,0.8392701342628774,0.47863626630328676,0.7617054472019344,0.43546643885077163
14,3.3134364390789974,0.7432257079612243,0.7024766309820835,0.20251840328092524,0.3945122079383172,0.13411896425650227,0.658845410083485,0.042267636700743724,0.8755196860783029,0.5573760583236367,0.9554879643437185,0.6790679581966571,0.9416108060610776,0.6011244855232385,0.9503345955345512,0.6994961521493491,0.5848722302858967,0.028730596777650864,0.7044361427080639,0.4141744064803402,0.9753475821191073,0.8539731437719765,0.7290493563027616,0.4487687186999216,0.717528618981895,0.5549164248542514,0.7462168741224724,0.31129421991244266,0.5084191578029561,0.04421995156618902,0.7311640987983156,0.0711730876505886,0.7796639746410112,0.10812840522717704,0.6041288724336452,0.03149425836667359,0.5643472545516237,0.03678789234786589,0.7797517097379411,0.11644069315245792,0.8251555024131333,0.194025807907836,0.6522294674661651,0.23993292475530786,0.8925132658064885,0.18004728906546014,0.8642038613587433,0.9689549825324997,0.8770065902164009,0.4821799586243993,0.5865393410769321,0.10464300833188224,0.8819044784745779,0.49280223676898843,0.9258966868249876,0.6687232209772219,0.7558949024868391,0.34323632911859936,0.6893315018315018,0.3881595811896381,0.12785941814513657,0.8505068148551914,0.4912450595347442,0.8744527371759515,0.3972918145596248,0.920589025911963,0.5486763072729411,0.6516417823443779,0.3320886865903755,0.6581413682750168,0.2951058402299179,0.6714009124290642,0.46689391420979093,0.7006590272115404,0.2699217147228277,0.8309878550504257,0.9588402061683562,0.8142799148716309,0.34868200973781677,0.8505658723365545,0.5250083034673243,0.7464895356046686,0.43287393405807784
15,3.2119258856302033,0.7201740325166018,0.6498244334441335,0.21443868353628373,0.4213159717713414,0.1428344056481407,0.69916134424996,0.06416011307409114,0.8797811738246242,0.48305616504266935,0.9109274603137361,0.626020918870376,0.8736979109332182,0.5635705292947094,0.9667815900511703,0.7182501175504467,0.5908222734502724,0.03800947444173379,0.779987088545874,0.4984000276089858,0.9797508414680772,0.8676040311764621,0.7049792640969499,0.4177310587358058,0.7359847477414171,0.5866518729729578,0.7867797107434228,0.3457049271844566,0.4738496820046864,0.04293400808368522,0.6295205170548296,0.03018522163300847,0.6829201958194109,0.11253791414066916,0.522697895662065,0.028525587623372622,0.5710542113642889,0.0424812023096037,0.7306947134297647,0.08576931123559751,0.7188551129401991,0.13195962549278423,0.6388229084191079,0.22562904548164137,0.8941598013625572,0.2061761930013871,0.8940948010917957,0.9759321752573558,0.9248120239189288,0.6429684861251049,0.4162447574304252,0.04389264750285237,0.8490840053361715,0.5248154132062192,0.8573901052125101,0.45713417066216505,0.7327405385807754,0.3376804935886136,0.6778846153846154,0.4147225481641945,0.1331461606703318,0.8630611599838739,0.4456371628011017,0.7958052519994483,0.3510782127846549,0.9406162055965592,0.5431424200697916,0.7282938809571656,0.38791730580729467,0.6263027593602913,0.26638652701951326,0.683459163235785,0.4694936871687519,0.7619815823082611,0.29508088597305804,0.8608411079784636,0.9662459176472148,0.7738963558361552,0.3331411441994739,0.7756244857115685,0.37451758831533016,0.747691318284706,0.415071546586956
16,3.129430273854726,0.7375772841767804,0.7209963119730678,0.26912516359769195,0.42792730990373906,0.17322406807332907,0.6809657057283013,0.05617107231335876,0.9188919176765608,0.5539300613735357,0.9874400118242279,0.8987949694827922,0.9708165947218271,0.6720090004748618,0.9418891581040085,0.6463372706468001,0.6292717711307803,0.04745373114135072,0.762061714268369,0.5922665538308687,0.9735083970005503,0.8391825899170823,0.7937474666685429,0.5238877255297482,0.7144255968684219,0.6128003346252677,0.7061202658709083,0.2557153196782409,0.4844488003101936,0.05201304988058067,0.6679738694045095,0.03903614158457978,0.760895268233472,0.14946355311414808,0.6550273542201032,0.06483039295455294,0.5283032343638404,0.037717653871669685,0.7569762603643406,0.10577045613458301,0.7118861369533518,0.1330177402474237,0.6615403623966797,0.28887012044158333,0.9109649115416308,0.2500336543346713,0.8854770363181754,0.9745021547048862,0.8729062913280455,0.5877510051211059,0.42282964641047127,0.06525431936693978,0.8309491275301186,0.5448286718857538,0.9405450742856986,0.5663428412332983,0.752547614644442,0.37038257835410016,0.720467032967033,0.4038057987584118,0.13795780761654905,0.8934117116418955,0.46555926649076146,0.895771209666299,0.4046238005228851,0.9113648582275793,0.5012319064620954,0.6955318669147685,0.45200515724717283,0.7040762696717195,0.3302068390143287,0.6471177812395683,0.4695818111263301,0.6793790239383233,0.22310818628280463,0.852659833940939,0.9650692606200078,0.7356399363088326,0.3178023326022376,0.8564396147850429,0.4476750419722181,0.7522907186448525,0.4286201281779446
17,3.03164697257574,0.6589573315014121,0.6810441261262697,0.20175548438480673,0.4843845158123132,0.18513945952801114,0.6560234191214682,0.07217157836241181,0.8827686723521877,0.4360772795261877,0.954191820696475,0.6812300447478284,0.9443746033982623,0.6879239743315245,0.9605958078890906,0.7114589372571712,0.6670442363700184,0.06584192159614963,0.8857786959913656,0.6610582011159637,0.9847267190148581,0.9045442187022079,0.7914447063851698,0.5350301649460243,0.6184000433005872,0.4346899641024195,0.6470804264275363,0.2553862337713407,0.543338538942623,0.0587321909932407,0.6876809729544024,0.04635790688458626,0.6969511737642717,0.11793660019066264,0.6240280278660111,0.062060094260478156,0.5650346547457188,0.038782499354021324,0.8778785632149124,0.16463197954848469,0.7853812959142707,0.16721565202552024,0.6357718370139509,0.2186039660730364,0.9280861851938601,0.2729207520378502,0.8890799099224397,0.9755605092370199,0.9207030459363171,0.6181704138319154,0.47376763380485654,0.05521188665375644,0.8749406355217235,0.5400688428322985,0.9065107607933642,0.5543485341685555,0.7617411492027528,0.36010775149864716,0.6282051282051282,0.46565173350984346,0.1616391209329297,0.8595398829898115,0.3758759486729731,0.8425089630446774,0.41477642176324325,0.9284235119205652,0.4966441002588018,0.8220844844857129,0.5260938208658422,0.7134993318637173,0.36408451733117025,0.5610334371870479,0.3311366978888402,0.5999181695701856,0.21185095938943363,0.8544354731473732,0.9650975356586458,0.7747740616276763,0.32018437348647333,0.8216096245849512,0.4158790409633512,0.7494071521755964,0.4166602306556095
18,2.9397079092465725,0.6949087855888864,0.647073359319575,0.20044128270455286,0.42855255360205036,0.14660016526911646,0.7188655091294757,0.08600233457333219,0.9343449841825829,0.552521943686756,0.9631523898761728,0.780248702703339,0.9619539983570842,0.637065903941622,0.9443923913997941,0.708727911579443,0.6498724042082895,0.04627159943833339,0.8346153146167732,0.6227971169525491,0.9667258217435793,0.831008512863374,0.85540510228309,0.5876338931459131,0.7213440321867699,0.5785628171185941,0.7426006503824415,0.28231496915879933,0.5524521500260169,0.07253198068855671,0.7406727283552755,0.06049590891491572,0.6989279905466491,0.09677896451346872,0.5895787952153907,0.05831190033353552,0.5476031159611146,0.03453317181943668,0.8521642180596743,0.143650536413517,0.7930167728839246,0.2024948078767413,0.6503917642925465,0.24663180586367012,0.9299549409126067,0.2644069506460393,0.8703414125193034,0.9712580964465455,0.947971941307052,0.6585912883063676,0.4369045462615136,0.046455318891183185,0.8743420398789936,0.4824353038850951,0.8969437154774682,0.43720755834188624,0.7685246164068594,0.36429558318802535,0.6254578754578755,0.4077331488000321,0.13193063177700068,0.9021583059557822,0.4493317210448723,0.888981056949807,0.38906981798557727,0.8967246654808049,0.5237028338705118,0.7542663330689708,0.45787822556940927,0.721580269978126,0.33766927132512736,0.6548336486035384,0.440749014922744,0.7015468873750259,0.22929768480362817,0.8344465991263155,0.9603125429741508,0.7810955757958588,0.2910746949315233,0.8127979771666275,0.38168009124131536,0.7596513153000809,0.41751786640416905
19,2.8489914059902857,0.7880314479810702,0.7279498901297451,0.29034004752510734,0.4819299427806607,0.19587384490110535,0.7199081562894789,0.07653556539144375,0.9158210252969016,0.5645496903247538,0.9357866836654216,0.6426041080270162,0.9354669956412337,0.7037774117560666,0.874503252771954,0.555400952805806,0.5907953945350422,0.044723108206000395,0.7173226768337696,0.4870563494186134,0.9785096898668016,0.8965042036930099,0.7947247557358679,0.530844451500817,0.7388585598137577,0.6188079115080453,0.743695521947857,0.3148670300808686,0.5589043040700855,0.08657238802174898,0.7435895110795996,0.06389265785497483,0.7042779896088167,0.1776251327149363,0.6198767505239676,0.058738623369791,0.627496956883849,0.05073518160282832,0.7952002511650428,0.19741882323038068,0.7717259334055158,0.1930160505982695,0.6627759202384375,0.3722380346829197,0.9225945036001774,0.2768869432909856,0.8772188234578859,0.9733558028231459,0.9258615392979562,0.6122018665799458,0.44720455123449837,0.048794293600178215,0.9041931277907416,0.6537329873838679,0.9075596919979532,0.5709480185939552,0.7638426814690007,0.37992746220320667,0.7117673992673993,0.4495700574660769,0.1516303369109544,0.8976156496555783,0.47117918836971706,0.8127682449669057,0.3774755912866887,0.8202681131524452,0.3739676726742546,0.6488630628502354,0.35783128195352226,0.6886692384948635,0.30777552528168484,0.6660395571380884,0.46914129369333685,0.7011429957535852,0.2628919988665405,0.8444625303332292,0.9617512852225951,0.7953292787355045,0.34279932023856813,0.8129830176274297,0.4146572303956479,0.7397919769249038,0.4082818840812283
20,2.755299022667063,0.8371880009159606,0.6712347682893454,0.2333051117587443,0.3965297271416105,0.14795497404010252,0.7035978097456219,0.08080305770611074,0.8609166531951253,0.5355382889718625,0.965844011646796,0.805428503553468,0.9381773419500794,0.724158022016722,0.8323569924565106,0.4740264266936983,0.6505162332836865,0.06226776133974693,0.6891162750496648,0.48508253851434024,0.9716150662013822,0.8197163511022267,0.8299384654608913,0.5808143464391374,0.7032281334367321,0.5897273506265498,0.7327719868869801,0.34428191820780585,0.5949000208269016,0.13566499679991403,0.7402978649725328,0.0852914163058268,0.7101943724695271,0.12723906231409915,0.5275475467374632,0.03441311534618452,0.540606914814103,0.0337627505377292,0.8345438933607697,0.191339753004581,0.7781131331107607,0.191043705999688,0.694001240600935,0.4061687848531474,0.9079909527958034,0.23059587600855555,0.8560808890476728,0.9675233052748268,0.9006396001197388,0.627773979390439,0.48576824499242327,0.05888664675773024,0.8795743654006034,0.5742538020515497,0.9345539882478344,0.6165854385745427,0.7529872774904257,0.376431380895901,0.7328296703296703,0.3734966051889962,0.12563124271301285,0.83237711448591,0.4734040103137392,0.8526236296883619,0.4134774454133813,0.7535409918759624,0.2894593578900344,0.6107381232521787,0.348813718766424,0.7185858916853205,0.34066192663430395,0.628290030043396,0.4401038799027396,0.6852690613757448,0.2968535063483208,0.8274915872079658,0.9573921251350563,0.769738886538475,0.32603855406290794,0.8528008303044587,0.4773959666146701,0.7186320683315245,0.40811197579950814
21,2.7012945229966587,0.8130677047553622,0.6897015567831264,0.25029234636398406,0.4977075659452751,0.23974663981625738,0.7299887866939339,0.12140432710669741,0.8705556294475985,0.5499400581690567,0.908060119280154,0.5398833751364767,0.9168705633811776,0.6237218758649078,0.918786099119929,0.4980238425013399,0.6346918253313223,0.052401281238077635,0.753427866631245,0.5379652867258269,0.9740600199344507,0.8289251357195153,0.8024114155329009,0.5641721377915914,0.7009424099078712,0.597557621351018,0.7783188377051362,0.32807694522139674,0.5937121842732114,0.1381560055977584,0.7785087794338759,0.08670844962621259,0.7292002165053149,0.12584391380143237,0.5913648185989214,0.044723955756457975,0.6207971184715371,0.05396161692784274,0.8344947194819343,0.14771473379666594,0.8349690559322063,0.2533544199174022,0.6764679183624067,0.3925564282518462,0.9163617019663222,0.2572664068181302,0.8891765394991474,0.9759132203832855,0.9338368081369949,0.618562437272933,0.5467509531768999,0.07393031543885781,0.9131729486967441,0.6268007523565823,0.9334963255239084,0.5965393855929646,0.7765863993982793,0.3749682560942414,0.7028388278388278,0.4516428478302293,0.1574258842887158,0.8532183026295509,0.4936835478453572,0.7856636531301711,0.3277136413766284,0.8668071005681516,0.3347255932392595,0.6701408074761882,0.36672721962868865,0.6821160769761088,0.3030281769673384,0.6298470012239902,0.46013809181427034,0.7478459600609052,0.2834138506617136,0.8525447124823357,0.9640178175434557,0.8003869179583099,0.3401080507081018,0.8335938372222842,0.4293018510801225,0.743073383414384,0.405480338650332
22,2.632172624579496,0.8703152431112129,0.720530160514198,0.310214535770042,0.4619803024967354,0.1945526145385792,0.8100559640588653,0.09260852450941481,0.9556507426563003,0.6957727911140884,0.9433601667723097,0.6396848718933733,0.9541262970742107,0.7302410200790819,0.9351737836671172,0.610776580068293,0.7326825473622297,0.0891540584225296,0.8095856662473032,0.578745711977609,0.9759873851614315,0.8262442262993691,0.7965303301562172,0.5069638315805001,0.7961688778895444,0.6982177099001655,0.8276984330827025,0.359243723251068,0.6737956392084171,0.13451246439300174,0.8239211428422822,0.1063320040312282,0.8236781251925906,0.1963286452037606,0.6731944378878242,0.050817483385718405,0.6043548000559982,0.051385829183889266,0.8415209102463233,0.149136431450536,0.8428324640723818,0.26438226077859434,0.7046371242265155,0.4504771747519276,0.929922081817462,0.2262614114198506,0.8869671747080724,0.9751934397096133,0.9611908568853383,0.7107023845950697,0.63531730091119,0.12142918151868562,0.9156139060243653,0.6303399686938639,0.938384253026563,0.6021493065737047,0.8138837360831294,0.4074765994479095,0.7406135531135531,0.40137156381943817,0.1329371474165137,0.924878553385572,0.575209014182501,0.8458647183535576,0.36325030279773446,0.8752530465140975,0.37428492512542755,0.7247932527769554,0.4079806141979103,0.6595707330774272,0.2766748437822046,0.704750194725715,0.5134781059466214,0.7913645516423076,0.29244456936650015,0.8433961996074941,0.9582029286848607,0.799104322901596,0.3582912003127492,0.846139373715571,0.4362249002000619,0.7651351373199756,0.426270777455735
23,2.5236919846446284,0.8546675826272804,0.729602427773925,0.2567560918350064,0.5129952096638215,0.2876591797414657,0.7911137477181801,0.11517117443392051,0.8658169484606538,0.5479931731125601,0.953175868778472,0.6663008646387227,0.9756165459921023,0.7859786281274267,0.8942555293429463,0.619381966659457,0.6178453861551452,0.04463193448714402,0.7399716934519692,0.6025326393041219,0.9863605925526484,0.7912205757460758,0.7445102058898622,0.5245506292698073,0.7768631461920524,0.6873691545482341,0.7733787926977314,0.3820436659956924,0.6511481415506063,0.16035556072221915,0.8316021637025482,0.12161229075766297,0.7287577605633425,0.12519001926616738,0.5791357849848149,0.04517161142805458,0.6864209394864786,0.0734411138251188,0.817157901107547,0.14032217049669796,0.8325573998988518,0.26292132983570715,0.7093495586452907,0.4067484036176433,0.9251785765439983,0.27792371469500815,0.8655487898054612,0.9704861850478569,0.9110044037396744,0.6523764329698527,0.5043400887767977,0.07786753937610172,0.9350979848533023,0.6845304956889406,0.9192131683259999,0.6562495012440295,0.7873340280242304,0.40617726099521106,0.7706043956043956,0.4484159220146222,0.16319574303261336,0.8064856279828325,0.46772021395432883,0.8752219215388859,0.44141507568777266,0.807217550310625,0.40725388524064027,0.6341527544053152,0.42352048814967824,0.6162418823569464,0.26409044066330617,0.6719514298431066,0.485468853004652,0.7065163324770363,0.28549417843159275,0.833147111016067,0.9590871212509001,0.8191064944345109,0.3992826971812918,0.8113507333391223,0.4764011248017996,0.7299825236108245,0.4339027110362341
24,2.427312661505739,0.8275704144721777,0.7904975515008517,0.2540484456535101,0.5056719251173537,0.23165543843653574,0.8003255664842186,0.10298280435671353,0.9645777759540594,0.6750751770367971,0.966431712086214,0.7384679688022833,0.9753567519779326,0.8043163796084277,0.8712108568892831,0.6081615210333895,0.6808290089902066,0.06934646501718944,0.796465623679441,0.6229567053824832,0.9855594574823805,0.8729948155787187,0.776408896004709,0.5501469549241407,0.7731720666418436,0.6130230739862453,0.7393908672441675,0.32593946757737785,0.7098923932252968,0.21099696193405754,0.8685601687381391,0.16350718973387637,0.8830740673256503,0.2213547948830474,0.7107485112725165,0.05541960081214009,0.6436554884053122,0.050250146999323536,0.8714190068389517,0.2090529197220459,0.808612026910303,0.2404051714965956,0.7166971773807183,0.44934029745714366,0.938014687172989,0.30549593656823393,0.8585380995099144,0.9693148530130022,0.916054654057853,0.6048207711652996,0.640485018045751,0.11465758385899592,0.9074166877231019,0.676397687409436,0.9637666648514298,0.6955269917767717,0.8171419522781699,0.42354281941569566,0.6948260073260073,0.45357603474039976,0.15673250746399103,0.9227678769677659,0.5340386288915824,0.8678618829288471,0.41912099163032085,0.7931730539478574,0.3726575049732812,0.6971435058131598,0.43633403447630953,0.6502466146343124,0.2794253850001225,0.6841242906420385,0.44562881681757566,0.6769457376574869,0.23212131333527394,0.8287626592619768,0.9595440846800242,0.7709669258421509,0.3309946212932086,0.8787912619552677,0.5261371444582791,0.747669076762842,0.42661227572908805
25,2.4336828925156264,0.855583543240974,0.6770563473653723,0.2092868153294766,0.4110895489873461,0.16616498666318702,0.7550866103463976,0.13619841857849005,0.8979592648889421,0.5842838454731902,0.9509589116640768,0.7505878291266816,0.9636279818212685,0.7590630760203358,0.8248035971139676,0.4771230146387705,0.6518974933039878,0.05689084240538522,0.7244937686815596,0.5208547495778452,0.9418815734513782,0.6372698581322608,0.7909070051064331,0.5496818484447504,0.7043605433352713,0.5746636201962387,0.7545240809761393,0.3415775712884392,0.5873280022715387,0.18078167982300786,0.7867095789143026,0.08016109921684945,0.7535674475684685,0.11825687645935273,0.6041157591929437,0.030021772720424132,0.500174638088662,0.03469701066717461,0.7606283665193971,0.20414521663967986,0.828851411122485,0.28693468322390436,0.6837881362912757,0.4360370881847043,0.9188466710366454,0.29696772205479177,0.8371204500543985,0.9641897825825992,0.8853373744069559,0.5285365454569823,0.5574350117200111,0.07425893965414213,0.8857617484823782,0.6075714560509988,0.9088215114305928,0.5685681062741491,0.7610049197830441,0.37684349832903014,0.701007326007326,0.3746800252730391,0.12251091974570161,0.8736554669044371,0.5124405286302275,0.863678769649752,0.443560229923928,0.748085143099878,0.3053111695937288,0.6259224431378023,0.33855753809526584,0.658195361772391,0.2850540181785196,0.6031264604428619,0.40109284133780604,0.7074790090334949,0.27660737956866477,0.8102248256511011,0.9550787143679843,0.7623695809957709,0.31226136575522156,0.8048856884125388,0.4461280304283366,0.7120275249430061,0.39987297596594407
26,2.3601366832651043,0.886878864208839,0.7118875098644092,0.280627058133687,0.634553797632388,0.369138752881478,0.8189709815448891,0.13751398477650306,0.9439826781329823,0.7036758639739696,0.9332617468584187,0.636078082462496,0.9580885227309976,0.7018044357357925,0.7978099636383296,0.538028931259892,0.6377519107746503,0.09288735602512783,0.7672178713509322,0.6292725389821137,0.969406364438001,0.822845138832282,0.7576332653087752,0.5331686636416274,0.8201976864670423,0.7035197878064591,0.7655168949513427,0.30388386102741843,0.7675870125852078,0.2737892759192475,0.8506491928888535,0.16249409184137775,0.8081593430885768,0.16925613568524467,0.6121463077984817,0.05564235042190403,0.7085226234627221,0.06785941918317313,0.8052880832778553,0.15036663605112316,0.8325115182145073,0.26384112954861316,0.7580532315300912,0.4617743696081481,0.9540775188181511,0.32077900672331594,0.8556478741411409,0.9686520365377044,0.9462587208521626,0.6801141544286601,0.602429960146551,0.13899957805741286,0.9299162070007115,0.6656236925339143,0.9494415733830205,0.6820460494513904,0.810998828180785,0.4264326807974103,0.785485347985348,0.5469723500917651,0.21385236986238282,0.9074471873756472,0.6062036340482655,0.822113727247656,0.34980540939901833,0.717752747836245,0.34824384504937267,0.6597564286842884,0.4528122326468276,0.6204406082167997,0.2837695610981099,0.7172081896072104,0.49692054022731896,0.7214118087155252,0.255521221720071,0.8273943168616142,0.9592909746338609,0.7861992130065194,0.363866429759333,0.845684525655498,0.48605995158302145,0.7429437366635244,0.43784965182068925
27,2.30477404769127,0.8457369666437676,0.7439142905729461,0.2998479817224041,0.578316688371291,0.35424087318601005,0.8214035809385508,0.21711736926195305,0.895695869077135,0.6015537773876158,0.9252137275450564,0.6140185468428656,0.9547459375995326,0.7554053255824348,0.8008453916279675,0.4711843269404808,0.7126683489705375,0.1004419486226869,0.6832836766151811,0.504657548633592,0.9741238897372941,0.8563533170676255,0.8294476296961362,0.626194963751889,0.7992590684712311,0.7116791166510767,0.7488012423459067,0.29179204996529556,0.7962107762809046,0.30958846542582324,0.8721746661474584,0.13885597848220735,0.7383859501984187,0.20263871217973295,0.6919958277414728,0.07661975325806895,0.6976200814819561,0.08035855559512303,0.7641639684076742,0.2610213382745533,0.8257545712234942,0.2990595279439477,0.6945756489200217,0.34208691370480854,0.9286439472704202,0.28614660549088744,0.853629357871335,0.9683081892282885,0.9230929082302051,0.6534705225127605,0.601823024095271,0.09654171218643862,0.919361462530486,0.6865423253764197,0.9222681660983136,0.6199313611825059,0.8036081369654148,0.4231724854243517,0.6959706959706959,0.5036114370530834,0.18467692456238002,0.8654400246593877,0.5054979273204566,0.8111910938361832,0.3447030892831292,0.7337726663303775,0.3044447922809798,0.577423862871098,0.3338861283537182,0.6950367474955529,0.33045839858358106,0.6979990541893846,0.49327587071038054,0.7018286178548153,0.23311291911847443,0.8309375804893901,0.9604219801078615,0.7878005848162781,0.3352700807267207,0.8101484872167021,0.44053781323941654,0.7286536506192957,0.40602599311700893
28,2.2480214913831706,0.8749713762308221,0.7720075965914979,0.27667913977654573,0.5773797245855059,0.3087713090712825,0.8588704423985936,0.16064689235805818,0.9247254193304649,0.6386950528344896,0.9286464187609256,0.6031270219592996,0.9694310878030379,0.7839185526788013,0.7886843713991125,0.48928407125279794,0.6832383084624312,0.08400313450675069,0.7320216184700998,0.5722812318956565,0.9802083172185474,0.8354649483907975,0.7037062631764539,0.48331461726129704,0.8443320091192531,0.7339472051325389,0.7923904311679444,0.37468234775411163,0.8119272183496389,0.3240460284190829,0.8811029503852659,0.15155874930211483,0.7904966090658921,0.1939839381637122,0.6162998331246455,0.043282149264930514,0.6834487700590591,0.06465043932106301,0.8368240482963143,0.1991925644065941,0.7838960501778783,0.26142246444143913,0.7274670391831534,0.4985109698528994,0.9204268564967487,0.29271284113625873,0.8494860123682589,0.9677316364143761,0.8937375913515608,0.5893003499544788,0.541600564188995,0.08302118065672667,0.9251362128268348,0.6973744091766333,0.9368951843143309,0.6458397948958617,0.8057180351360166,0.420646038528837,0.7516025641025641,0.47858551213005585,0.17111343266184587,0.8819797517865431,0.498156990521554,0.8178896769856592,0.3544495040576447,0.704919556098338,0.30091858690959516,0.6173727494044176,0.3878016035550365,0.5621036930488292,0.24286381045537703,0.7176438188494492,0.48260768213762845,0.7157929807026311,0.26871647141107385,0.8302876542800591,0.9598527021958582,0.780200754473973,0.3555045182390218,0.8225792779493796,0.4578514417024813,0.720850493246303,0.40725788580428335
29,2.2103367963007194,0.8010838867262041,0.7219292791607879,0.2580147997485489,0.521148293083145,0.25463334542286564,0.8484816656590305,0.15685613102408083,0.7867037302078885,0.468086803079648,0.9067435093054996,0.606853461668072,0.9409569177372774,0.7242351307490555,0.8922477210784356,0.6123180869765513,0.6850186413182686,0.07542668066716557,0.8091187136726684,0.6437427279066559,0.9713743941761349,0.8405439450063054,0.7051502695601808,0.4456202887013101,0.79975945155078,0.6757508455480821,0.7664199097656669,0.3236970599079185,0.7777928640739965,0.2831939265363247,0.8517647151414693,0.11304551242642388,0.7618404693449374,0.19157334660590633,0.6107188378821291,0.0388621766747878,0.6968930555258958,0.07527841439771962,0.787780669369969,0.19920621711897765,0.7767597103197293,0.2533448456868501,0.6890186644880504,0.20001665835136573,0.9229742789113697,0.3047356689644008,0.8190757039822172,0.9595891352762496,0.902666659898065,0.5696102893593272,0.5028619141250549,0.06187703319184001,0.9215901440969185,0.7188094164780005,0.8659093107637345,0.5521708148887553,0.7867666479333074,0.3928552874949329,0.670558608058608,0.43036495471913827,0.14055605885005668,0.7626368478475716,0.3990012414931834,0.8160701358246001,0.3265459971275512,0.8025590054691234,0.38329858454638804,0.704052721117133,0.44812782901398923,0.5794592777319114,0.22334606831915257,0.689941025926338,0.4645617223542272,0.6846114954218796,0.22872035183314865,0.8023386414283513,0.9532903323145072,0.7749473563726201,0.3350590743241572,0.7638263472806288,0.4024749887047199,0.7100734371944815,0.3913620226255529
