epoch,train_loss,train_accuracy,train_1st degree av block_rocauc,train_1st degree av block_prauc,train_abnormal QRS_rocauc,train_abnormal QRS_prauc,train_anterior myocardial infarction_rocauc,train_anterior myocardial infarction_prauc,train_atrial fibrillation_rocauc,train_atrial fibrillation_prauc,train_complete right bundle branch block_rocauc,train_complete right bundle branch block_prauc,train_incomplete right bundle branch block_rocauc,train_incomplete right bundle branch block_prauc,train_left anterior fascicular block_rocauc,train_left anterior fascicular block_prauc,train_left atrial enlargement_rocauc,train_left atrial enlargement_prauc,train_left axis deviation_rocauc,train_left axis deviation_prauc,train_left bundle branch block_rocauc,train_left bundle branch block_prauc,train_left ventricular hypertrophy_rocauc,train_left ventricular hypertrophy_prauc,train_myocardial infarction_rocauc,train_myocardial infarction_prauc,train_myocardial ischemia_rocauc,train_myocardial ischemia_prauc,train_nonspecific intraventricular conduction disorder_rocauc,train_nonspecific intraventricular conduction disorder_prauc,train_nonspecific st t abnormality_rocauc,train_nonspecific st t abnormality_prauc,train_premature atrial contraction_rocauc,train_premature atrial contraction_prauc,train_qwave abnormal_rocauc,train_qwave abnormal_prauc,train_right axis deviation_rocauc,train_right axis deviation_prauc,train_s t changes_rocauc,train_s t changes_prauc,train_sinus arrhythmia_rocauc,train_sinus arrhythmia_prauc,train_sinus bradycardia_rocauc,train_sinus bradycardia_prauc,train_sinus rhythm_rocauc,train_sinus rhythm_prauc,train_sinus tachycardia_rocauc,train_sinus tachycardia_prauc,train_st depression_rocauc,train_st depression_prauc,train_t wave abnormal_rocauc,train_t wave abnormal_prauc,train_ventricular ectopics_rocauc,train_ventricular ectopics_prauc,train_mean_rocaucs,train_mean_praucs,valid_accuracy,valid_abnormal QRS_rocauc,valid_abnormal QRS_prauc,valid_atrial fibrillation_rocauc,valid_atrial fibrillation_prauc,valid_incomplete right bundle branch block_rocauc,valid_incomplete right bundle branch block_prauc,valid_left anterior fascicular block_rocauc,valid_left anterior fascicular block_prauc,valid_left axis deviation_rocauc,valid_left axis deviation_prauc,valid_left ventricular hypertrophy_rocauc,valid_left ventricular hypertrophy_prauc,valid_myocardial infarction_rocauc,valid_myocardial infarction_prauc,valid_myocardial ischemia_rocauc,valid_myocardial ischemia_prauc,valid_sinus rhythm_rocauc,valid_sinus rhythm_prauc,valid_st depression_rocauc,valid_st depression_prauc,valid_t wave abnormal_rocauc,valid_t wave abnormal_prauc,valid_ventricular ectopics_rocauc,valid_ventricular ectopics_prauc,valid_mean_rocaucs,valid_mean_praucs
0,5.658000069969019,0.6978093275322494,0.36622449915379296,0.0266666972598494,0.4333116148920746,0.13421365471601618,0.5249712123294549,0.018199751509894856,0.3775204077626239,0.05255840503800655,0.4632543154782872,0.06684335749142617,0.4807419385316731,0.046703953818555105,0.820827549307978,0.28804166417437743,0.6308989370483726,0.03924649306689551,0.4070337132375062,0.19258422157029587,0.8231335696536581,0.2117348802856621,0.4567930230431931,0.17509188736546585,0.46063087366959826,0.24965407748764507,0.44343612433447754,0.12614124481782707,0.4320635845316929,0.03289153791037845,0.38492319024859595,0.013112716158434037,0.415450941643949,0.015347248334505733,0.36869239229854134,0.01848814297537767,0.45423239503845253,0.01398177356098695,0.4342061031230713,0.030128000141467985,0.5456787968342839,0.03812110362978803,0.6732245817672288,0.053725270054382546,0.6975477635241166,0.9082829472175337,0.35032527872579716,0.02777514886667143,0.317352880701297,0.030550756750484787,0.5032632734482021,0.10513232913024803,0.3323783867260434,0.03539354240657677,0.4845429748866908,0.11348503098995205,0.7026098901098901,0.4464316626336597,0.13248066459602026,0.34838976808832034,0.04954128773027186,0.4944350621604574,0.051844222126103456,0.810674353598882,0.25289447040363766,0.4086706448113069,0.18910803266155007,0.4655165246902333,0.1619603467727579,0.4618334070338257,0.24952691795903786,0.43414200564676353,0.11234673072936285,0.7165403869621935,0.9187303848331287,0.3268285679263443,0.03308220157228605,0.5113392311457593,0.10441202423673718,0.33730147786572046,0.037530676727735225,0.4801752577136221,0.19112149669571907
1,5.095766240754625,0.1178535989619113,0.35085571127247867,0.02795875336754183,0.4054275470627763,0.14768144165410904,0.4422704837539265,0.015288254647852748,0.37048303130677496,0.05518312267231877,0.4248568412584349,0.06335653603138865,0.4452838663357177,0.04584111838227138,0.6682870148747095,0.10113337290359378,0.43797178796845426,0.015883044221835337,0.33440682727085813,0.19562743135707383,0.4720336256242615,0.022711367433402272,0.28924505208577045,0.0709285227729836,0.42038058794727357,0.2546150628630731,0.34239568981187546,0.07083899528461826,0.38537511612779407,0.027915980852053955,0.34316742781368864,0.012536064523189554,0.43162941213968853,0.01631108725323186,0.379891105094015,0.01977170386066951,0.443565455912272,0.017062662045473805,0.4585103116053972,0.03445295421067704,0.5392329992946253,0.036661592921119326,0.5324421887689976,0.0350426396183005,0.7043553472206715,0.9000914555016961,0.4394012273706942,0.0397293784562874,0.3301819496389632,0.031286067651202724,0.5164126157290734,0.13753127191790748,0.4411219305203289,0.042948375182487966,0.43650712130036623,0.09378416375332153,0.1259157509157509,0.407732476978966,0.13778737413987666,0.35582484072457315,0.05261838734360294,0.45043746312084154,0.055635549456278785,0.6587079742216011,0.09544434171910829,0.3452971879306806,0.19789052469736462,0.2885745034620991,0.06675678678908877,0.434033394719313,0.2537758425458845,0.35890962854520314,0.07627991699464884,0.7116779984009329,0.9056180045587011,0.3487444839922276,0.03504099266919707,0.529628349322323,0.15619340397486733,0.43185260768890565,0.04376799050163393,0.44345174242563884,0.17306742628252106
2,3.5603651049919467,0.03656209449660331,0.5336667027937338,0.03951857895511287,0.5398185033300886,0.17323594164490197,0.5064491859338137,0.01846786210578155,0.4581910798356671,0.06656842706964235,0.49761362957774163,0.07839621901736582,0.49193379527748143,0.051183762737650546,0.6588573223749283,0.12068541781340769,0.5125501631891088,0.02095269790317155,0.6050318077640482,0.2987646357832302,0.5992752663110146,0.0334339719397348,0.34884658052375406,0.08248493959040804,0.5596041694510002,0.29309699419592344,0.3893713332051245,0.07813020238179555,0.5153104412261736,0.03818909067246114,0.4707997563239256,0.017494484812810972,0.4859034644647685,0.019598642279013697,0.5159647446118241,0.027703440732337742,0.5789120810934973,0.02671531476537731,0.43476105552397765,0.0319051482551859,0.48223599873872447,0.03396111327536784,0.48919444422719194,0.027457085929362423,0.5071610063684698,0.8276928191835603,0.5096252125077462,0.04523911339764662,0.4289556475076838,0.04135694292872512,0.4819115016128337,0.10512214282685794,0.44953462660916643,0.05360921234444254,0.5019799815532111,0.10196016163620293,0.048534798534798536,0.567544196890233,0.17256402079285943,0.4552701336207435,0.06646140325679695,0.4408926282377358,0.051149077049344516,0.6411250873515024,0.11122534254272481,0.6023612292173709,0.2917661904459339,0.3340401785714286,0.07438899551538394,0.5556168171462796,0.28596524877409546,0.3912350262005182,0.08079599867886256,0.5084644222618984,0.8309139166213478,0.4044402727586395,0.04445530077424431,0.4864929217954497,0.1042702315829899,0.5162561143642747,0.06875343233903516,0.49197825236800624,0.1818924298644682
3,3.1564559611498186,0.02831844897336081,0.5422289010979849,0.04261365696369467,0.41826403630280895,0.13004939622931536,0.46980107488212547,0.015509662846606178,0.5468757473328026,0.08204392183499425,0.5077270410919014,0.07817176736391947,0.48156397996984457,0.048064374105532146,0.4811200051762682,0.07609430684830137,0.5852607533368045,0.023885094062610173,0.43062693036977834,0.20558317369130608,0.7622975346796922,0.06601193621350894,0.6022556542534773,0.14846233457763483,0.4688973702536224,0.2377445788997727,0.5630173029250057,0.12100226935410305,0.5632597135486106,0.0446969620406319,0.5675654266171137,0.022653189284604698,0.5778282754422608,0.024102367330495037,0.6033875047021824,0.034324680662277424,0.5367020491143077,0.018694777268786187,0.5173626670329035,0.039842407256091686,0.5301367971431967,0.037250668137206,0.4785992346034646,0.027447016730650906,0.4281026953833161,0.7994387253392168,0.5501752714727659,0.04694486653470367,0.6050006921047645,0.06353793980135582,0.484879450051411,0.10722411929899779,0.7332093195578906,0.10536137633099912,0.5398517472479347,0.101798291115666,0.048534798534798536,0.40766936059193715,0.12059482481229203,0.5603823442513118,0.08441619200531512,0.4669771298349848,0.048998928973224304,0.4884560136656573,0.07209599729055544,0.4386983549834325,0.20665737723390618,0.6229913561406706,0.1513126485772917,0.4682422712439337,0.23178176657602778,0.5728624211370211,0.1245914947075117,0.4126919180989137,0.7990112175006083,0.592864147311457,0.06597003250297999,0.484966938880485,0.0999358353813872,0.7118636796803421,0.10036368676200691,0.519055494651679,0.1754775001935922
4,3.114682877030084,0.07671170139683993,0.46366095025302845,0.032732925750572864,0.5712384419885231,0.1792264472420293,0.47064440942369834,0.014746752605451323,0.4362697786645632,0.05820496799760095,0.4888535961368527,0.07205320261641908,0.5068145660526657,0.05096120422910001,0.44442310474602376,0.06482662437049072,0.40336601348691314,0.014535315028916597,0.5087801398312488,0.231859347437939,0.27910595298289065,0.016769331487287115,0.3242319715515779,0.0740860307445759,0.5183784520257155,0.26194846827791196,0.3987020171817413,0.07653562702945835,0.4438969005980051,0.03133794010276621,0.4287366731129073,0.015275634591152337,0.4042472410651008,0.015111801245842056,0.4233649294529429,0.022951666508961396,0.491499188587725,0.02213169051307526,0.440381504504947,0.03200881718138498,0.5042535128159684,0.03345547009803074,0.6028251010875842,0.043281551261585824,0.5769541782806147,0.8619362637883298,0.4021583533980299,0.031364146186423754,0.3659687383669284,0.033684589950139385,0.5073841514082582,0.1156918116650054,0.3580082217225097,0.036910578822767985,0.4524672341818063,0.09398570025896993,0.07280219780219781,0.5844380071668965,0.1744816949726854,0.41635075133058963,0.055304556945270936,0.5332553360327181,0.0641525257014467,0.44512306856122374,0.06291470499954119,0.5020916048441486,0.2223246388504418,0.3130198842930029,0.0690096379942591,0.5205859469020604,0.25531315163885865,0.39960089232807006,0.07833417368622475,0.6003566715961213,0.8706660176315681,0.35176637096627744,0.03670905334071465,0.5028401313042203,0.10833867336705011,0.3417971762336231,0.037444867442553625,0.45926882012991266,0.16958280804755124
5,3.146132480651402,0.25608732157850544,0.4485918780794851,0.03420636239478159,0.5430497078652465,0.2108965417658023,0.4920049677870061,0.01633501756107307,0.5051364741239921,0.0768285899653875,0.4668797902698017,0.06801611576676997,0.5094126328159139,0.04985285089670201,0.4677292440595672,0.06913933476537905,0.44690401051522033,0.01902673609327448,0.4613014332236447,0.2167203643898945,0.186038827014784,0.0154228499208359,0.3488325725218555,0.0795357116525061,0.5462025461628494,0.30836286287766423,0.45754401471064765,0.0933902088454765,0.5046953842704797,0.03906899712380314,0.5461088487940896,0.0207751216067567,0.5156045907876761,0.01949651455751982,0.51396142396404,0.026206310083180966,0.5567149586239403,0.033611788029971265,0.5785654041854589,0.04602433863304195,0.5079472100685658,0.03359584362073184,0.5252218822563761,0.03211591951263237,0.5346809979231926,0.8285401948808346,0.45733996141023203,0.03877940699224938,0.47993198558809413,0.04354237080316827,0.6217991567799439,0.1479415448937037,0.3912076944819439,0.0408869915201751,0.4851310614724633,0.10031995727512756,0.24954212454212454,0.5349335838800336,0.19440394378152928,0.485228478571161,0.07944901437733229,0.5233554438724642,0.060785025437436524,0.46015296218650514,0.0652728633129401,0.45149722898278744,0.20795397414981603,0.3497021911443149,0.07379716293404409,0.5474972152408886,0.3037994786647984,0.4581459792952002,0.09976504504918653,0.5535988025032011,0.8384564004276477,0.48509883414749305,0.04852648476178438,0.6120535504406766,0.1397422936206131,0.39858811681155243,0.044655049736961924,0.48832103225635654,0.17971722802117418
6,3.0934230778819867,0.02503625677429204,0.4993175319099269,0.035690133843650204,0.5932899789808925,0.20238294741514112,0.5394291388908077,0.01916927540950274,0.5249674296748679,0.06983693596265704,0.551008384712468,0.08905408636667292,0.5331952438222638,0.05858820531736876,0.5193379270523896,0.08225023858471034,0.48365743621655255,0.017442447222329818,0.5695200986907833,0.29357857617714794,0.32538275871081945,0.01807354009261345,0.485863496430869,0.1307742362619842,0.5576442993311789,0.28600216320701966,0.4699090990518693,0.08971520014670253,0.4973175541066354,0.03668514920121427,0.4916157986047228,0.016380666214854397,0.44864018789131005,0.017078102104572633,0.4304344339145262,0.02149434046638639,0.5185713103114988,0.015734988423405427,0.500718940292368,0.03495578106081591,0.4987223535457713,0.033862119705457466,0.439008364037971,0.02460216972889894,0.49947777328896853,0.8333333022132008,0.49681943958042885,0.041411635798042745,0.4497654907157169,0.03979815523605575,0.5157086647301474,0.10968004306948582,0.4586966947579848,0.04533091911496373,0.4960776857405284,0.10241943685941748,0.1059981684981685,0.5998583479131502,0.19918007290651066,0.5123059253371729,0.06644663437986865,0.5110098276598776,0.057384394357767765,0.5216600667753708,0.07923244271473465,0.5642748438553793,0.2851218479577336,0.49062243759110785,0.13149687317926906,0.5598163458362954,0.2830415052648968,0.5049240707820651,0.10038973065989343,0.5044703240815885,0.839718174440037,0.44687721321299506,0.044951931011827026,0.49956139744415834,0.10234481817808566,0.4562942330654197,0.05048206046732656,0.5143062527962151,0.1866492071264959
7,3.2084400667669972,0.25036256774292037,0.564404612036983,0.04534930955028501,0.5959622594302558,0.22966462404714166,0.5292005252637179,0.019263461012065792,0.6063957410507455,0.09254840213258667,0.5341074925975801,0.08530404299549349,0.46642375313463275,0.04695191200233963,0.6048253017697023,0.1026673758170353,0.5806941569409343,0.024003552935965754,0.5627869753392094,0.28644457030811377,0.5277505135145123,0.02574793088970418,0.4618169464307611,0.10510110731535824,0.6038047937737764,0.3329290358899395,0.5932236576929257,0.1366362760121645,0.5306029643795507,0.03875583550591798,0.5651451903276408,0.020382657174779467,0.49846553971878804,0.01765217806316529,0.4965862633260326,0.0235111290654738,0.6596765015601787,0.025809340885281223,0.5723463952236835,0.04441017699447871,0.4768134750061747,0.03232449604175097,0.4224306382544316,0.023656923899490413,0.3965748310437023,0.7877513325056843,0.6098822095585847,0.050889791404582954,0.5375296160364034,0.04666498966603549,0.58702580642591,0.13204447205256786,0.5523239861162503,0.05703574321340386,0.5437230825366565,0.10898079489926174,0.2454212454212454,0.5806826849340979,0.21166715352439308,0.591069756603012,0.08472979844796827,0.47630475919181225,0.052685312993890315,0.6002554546160416,0.09854655619900379,0.5573041961117791,0.2747931473649051,0.4549972667638484,0.10144988402888754,0.590231792713167,0.3118565419157947,0.5845048043965748,0.13912090847444164,0.39679142094537323,0.7907577204129215,0.499525577932337,0.044768274847140396,0.5706811060748942,0.12469083904550372,0.5470651562182407,0.058198796496641766,0.5374511647084316,0.1911054111459577
8,2.9648618318681343,0.017479581711319747,0.6067961683076692,0.04660053290885202,0.6262505804253427,0.23362339194450177,0.5650295140384847,0.02241487180624263,0.6711450566277488,0.10933183765411215,0.4814949147572684,0.0712582562337973,0.4150799946460276,0.040854543240880115,0.6156556412044742,0.09905068508379708,0.6261912169970665,0.02615042570832863,0.6137500084462476,0.30111540391495084,0.7220878161640578,0.043530851414723626,0.5705613651268783,0.13654156111767135,0.654430936242558,0.348241071819913,0.6914722897660365,0.16437010755477816,0.5868358211997127,0.04414214842225026,0.591448714227112,0.02082183453026282,0.4873927705843605,0.017656100580442157,0.5161807585742028,0.02507252264944365,0.6188064557989129,0.022077070783835074,0.5608942260556794,0.040939386535277844,0.455304617250576,0.03028486230448783,0.42886739507081995,0.02446046449138593,0.33129683728427495,0.7611961488963618,0.6098353228084465,0.06131442518935734,0.577388870149051,0.05155218385881173,0.5404508340750916,0.11244787453538388,0.6412001381857664,0.07586973787198098,0.5694557024620719,0.11272762696353193,0.23305860805860806,0.6063176008371659,0.2092529044574053,0.6624821582392523,0.10344912087830582,0.4246027224449102,0.04777894632795975,0.603540259336905,0.09843915142010123,0.6129163123478872,0.31129383475809147,0.5761246127915453,0.13494116586253746,0.6443064970249257,0.33287586979615474,0.6821868428085097,0.17093047191262095,0.3392975226484397,0.7736543881319683,0.5521024388472224,0.05143972752815605,0.5430093223784095,0.11012037988606976,0.6095110857803558,0.06954161253888311,0.5713664479571273,0.20114313112485452
9,2.9535119425257728,0.035493473780627435,0.6165087913828609,0.05004564474852145,0.5821076096640114,0.21454354475681342,0.5247228585854198,0.018198366530990717,0.6338244165003944,0.10463994566638865,0.5050091301544359,0.07675853202364055,0.4620083252302011,0.04727347721471366,0.5954127704382535,0.09497099712707296,0.6178542854602949,0.026359566143304366,0.5819084754957464,0.3031093948848125,0.7663139437103372,0.056305266871733275,0.48521105949447374,0.1076042095229161,0.6093111224812167,0.3269287355470682,0.6464561341345507,0.15816746303622892,0.5472453722967912,0.04062603255338927,0.5706842895711274,0.019606904634940078,0.4765449910441642,0.016852168466010776,0.49640115964887827,0.023413269714816984,0.6255142176136127,0.02485720918061637,0.561352773960026,0.04271097545515667,0.4568581677197462,0.031222631021523582,0.471954498546718,0.030386292742510278,0.3750406530473037,0.7773657406845792,0.5504044702950436,0.04121160305186943,0.5464860564408076,0.04789616225792117,0.5607914082484803,0.12018442846201487,0.5755941314970274,0.06100549005142472,0.5554431197177663,0.11008630970580684,0.05036630036630037,0.5699417972339809,0.19587740452902724,0.634006500018726,0.09858579478195909,0.47814820843591677,0.05373034574203633,0.5707671403059243,0.08350489795895158,0.5680704043632525,0.28506422885118327,0.49522509338556847,0.10875598685951599,0.6101131535787653,0.3219866946062,0.6334381935004124,0.16395212934076914,0.36535976001971787,0.7826068736070158,0.5186908674886956,0.04923327374444598,0.5822700586001776,0.12943573207570389,0.5816176342913056,0.06387208643266104,0.5506374009352036,0.1947171207107891
10,2.938007997816805,0.07686436149912221,0.5352606567900823,0.03980280279973504,0.5247995496464021,0.18650945156679277,0.5499246215231366,0.025310692412189424,0.5132886926539193,0.07197938077920321,0.4333984756349173,0.06370299996259396,0.4471094700354701,0.042877373209813656,0.5885180452558894,0.09518894040988744,0.5412154096237125,0.02046085396069494,0.6241285483490562,0.32364243342561494,0.7539177169041137,0.0527946904294207,0.5779133164445424,0.13321968139192564,0.538656632565525,0.2871602933237504,0.5569658564921534,0.11709405629870087,0.5063181162755545,0.03736099383071911,0.5056755537566047,0.016755271019263492,0.469666090443317,0.0177549370844437,0.4775196298212885,0.022637793914506994,0.3662376050808728,0.011598796009185793,0.4729821803723118,0.032915408540409447,0.4747276904778683,0.03374108545687525,0.4780582415967537,0.02649958071763196,0.46673100776924903,0.8125771802141237,0.4798650996882107,0.03936082100147631,0.5108329850411298,0.04440003241005173,0.46673149430410565,0.09681499205002783,0.5714154997108536,0.06261610467725527,0.5166099302406555,0.10441448641908821,0.07280219780219781,0.5370116960627299,0.17538501923588715,0.5349615283782828,0.07360361748973196,0.42318859747288745,0.055153741253422664,0.5618988275487227,0.08319616698663593,0.6159310031375538,0.31042611743552334,0.6061799608236151,0.13383910434142224,0.5488323603002502,0.27696947783055925,0.5707062521059175,0.1258807668704372,0.4616826949088352,0.8172411516922448,0.5497002515117948,0.05313412638694619,0.49266681968899595,0.10403751656632546,0.5679579223469353,0.06365744952143898,0.53922649285721,0.18937702130088127
11,2.85632098460869,0.035875124036333104,0.42271361518003786,0.034261624070180546,0.42196887660493854,0.15286044189316206,0.489479414946231,0.017447684639273327,0.4018676627534685,0.058699913198972234,0.47481348854092653,0.06923973978112097,0.5184119074707598,0.05149612760464872,0.431359309047023,0.06659146161674975,0.43245034479255307,0.016544136296846076,0.4739497935737087,0.24556011004632616,0.460272363230288,0.02486232237670149,0.5350289134757817,0.12272288237015712,0.40441104195599525,0.22983132452980007,0.4000253893026405,0.0843169479599859,0.43762336720500145,0.03060405002353961,0.43443965405629353,0.014744701574093154,0.4970895096101805,0.017824824234434402,0.4780464174621391,0.022996025998576877,0.3539042130792499,0.01201223743383216,0.4434515783771899,0.03075791097262947,0.509862612078777,0.03655668005878388,0.5644021456130478,0.03515076522559396,0.5711623218828096,0.8440797088917691,0.45646876310628814,0.03719849395266332,0.4653420139845479,0.0404005589341741,0.42833522892653086,0.09143270761773678,0.4828593095576048,0.052018504104449664,0.4611438175313082,0.09385430328485386,0.07280219780219781,0.4363332462998789,0.15360189802980653,0.41207164169166943,0.05973475901706865,0.49860825686206683,0.050167327946248175,0.4365222455159562,0.06529949883056017,0.4791667888455561,0.24394451027427855,0.5604489340379009,0.12384333546198423,0.41241526775668763,0.2284973006225344,0.4172615520466613,0.08916849944974263,0.5733171848605625,0.8507130533995761,0.5160985708318957,0.048950496946070045,0.4548972215385382,0.09655029110431543,0.4839022028564513,0.059393895530705385,0.4734202594286521,0.17248873888440752
12,2.9598445279590413,0.03618044424089764,0.48136226833518136,0.03308333977236194,0.5807094198526535,0.1896041139669502,0.549126863009143,0.01893380497217969,0.5360709658306058,0.0745847333990109,0.5270612711697803,0.08097988602603531,0.48492300712157055,0.04865330065607077,0.5001767025562258,0.07194611902161871,0.4834259870718667,0.017769591752912393,0.5320114231878937,0.24619366622650052,0.2651376372113481,0.016752141855094407,0.39710414706446273,0.09365649811543877,0.5566565885259052,0.27905921907932807,0.5017584479529175,0.09461212278995779,0.4526543374474134,0.032673101951161604,0.5157323024799628,0.018327722551752704,0.4576766449551708,0.01731478003723972,0.4787526995778061,0.025334698685098765,0.580151013668717,0.01964673871247477,0.5492084806551094,0.0401930108522609,0.4864162871095794,0.03286474398528544,0.507172762520021,0.03065103068836316,0.4815451000136018,0.821660707839686,0.5153644390250712,0.04351371603402995,0.4706623509790931,0.042584319184667506,0.5698286251756105,0.12078211903799091,0.46655854866219315,0.04891204512001302,0.4972018585061117,0.09847258739667246,0.14995421245421245,0.5878793921912489,0.18062328428919594,0.5407524541523967,0.07752950641547944,0.4951716279732231,0.056689193250861324,0.5185856821181769,0.07519727755260305,0.5296968008679588,0.2503373138144875,0.40977359693877546,0.09706641130655125,0.56276021404862,0.2771394869124453,0.5160761383573262,0.10242441541432233,0.49097575399616467,0.8290832702456046,0.45113906695480055,0.043934766652907256,0.5671595644947636,0.12048409147125914,0.4555266498952553,0.0503295021453466,0.5104580784990592,0.18006987662258866
13,2.900114644493695,0.03618044424089764,0.5075531693164481,0.03503552612966272,0.5942466111630182,0.19919113236658764,0.5608965160687542,0.019965321583651864,0.5522042525244233,0.07497444983022397,0.5138401181300746,0.07751990550336375,0.46491271991638355,0.0469749788403135,0.5025191609781636,0.0727335664451835,0.5033536314339052,0.018647640657777124,0.5421586967874336,0.2537032754514017,0.3530732232488006,0.019198183913914476,0.4500825602236097,0.10093864957440316,0.5698308572770732,0.28423468783104294,0.5452287210640984,0.10187261999355415,0.49367653377853943,0.03539338288922295,0.49790633462394424,0.016021221710334564,0.45001824915597655,0.01695500163638877,0.48107944444550527,0.024143414167212558,0.5758670477122351,0.01831150643345631,0.5511578731397023,0.0391964639972592,0.4893444641607713,0.03418074022309665,0.45678024672656525,0.026463701493586483,0.4712972433072193,0.8270089564321469,0.5380508737930076,0.04378644197517789,0.48192598645087326,0.04178624616134029,0.5618588036792818,0.1174152254420519,0.4993408312256383,0.05356685813195594,0.5080078527050556,0.09996996533901197,0.7142857142857143,0.5985094664301001,0.18897857836243692,0.5562559559230484,0.07619319073481282,0.46045638594420824,0.052062347905954015,0.5142375184408727,0.07351703016995098,0.5420861801014574,0.25254716363232577,0.4389440597667638,0.09534417843552406,0.5776252301974241,0.2839372357354183,0.5443000801701,0.10590058100486084,0.471246100019838,0.8266945977441564,0.4582928523435088,0.04276913187447619,0.5640556079457305,0.11640111714740253,0.47086503508003186,0.05010163613774832,0.5164062060302571,0.1803705657404223
14,2.900894798938395,0.021067094114953056,0.5147004093474619,0.040111343844993146,0.6000893062304561,0.21764351120924982,0.561446454932786,0.024415857038361726,0.5507152086463951,0.08251030550558996,0.5406512032748454,0.08608001524587278,0.49999194197632435,0.04921637956844683,0.5708684405129039,0.09531262301863333,0.47959834524973655,0.018091439239698907,0.5586087051371527,0.27686745093441034,0.259086886024564,0.01630584217269023,0.37342303493829637,0.09254547465911135,0.5930482848556006,0.3320757978309013,0.5406659241969604,0.11736665170015204,0.465999140611864,0.035098356392529555,0.5241331986845853,0.018252704322484745,0.4530401406434952,0.016431264807080022,0.47637201089187753,0.02432480523006625,0.6019836345303653,0.024237115223229393,0.5618013806727864,0.04380875745105679,0.49366746457289246,0.035911449843876904,0.4791134712507034,0.025961118807742264,0.4722412872551428,0.8066488318478946,0.5150721934562483,0.045616990683697574,0.46366853154183474,0.041173257495378944,0.5917694172345701,0.13075906211040833,0.4366360290341236,0.04722907362733919,0.5068612325270758,0.10553828768503445,0.07303113553113554,0.597438749349819,0.20631156499897538,0.5472050335612362,0.08837339738930047,0.49803548538059295,0.051885369488222643,0.5528492118953335,0.08686219448655896,0.5508346773011172,0.27485287570578737,0.36745427523688046,0.09006569638251785,0.5929689730256198,0.329023548385148,0.543137904190921,0.12944241822167507,0.4786196174262235,0.8096249428370781,0.44725402691267,0.044716451724974626,0.5864320815922435,0.13180010827315328,0.43848865274087967,0.0526145726211894,0.5167265573844614,0.1912977617095484
15,2.854298303404088,0.01755591176246088,0.47206507874311154,0.03778083963964273,0.554706017007277,0.19057191966334563,0.52689804571418,0.0187794915373366,0.5090465193476654,0.07350059083422505,0.565478706594444,0.09023137716918717,0.5448017504733935,0.05528884929495066,0.5021792220456475,0.07589378885101133,0.45570622150540363,0.016809894226417897,0.5091621837202036,0.25310720970481515,0.2118845599547909,0.015651440509575783,0.33619489516015433,0.07949947579424659,0.52680037176779,0.2722349800252659,0.4902383894159209,0.1002528260949146,0.4207532893675345,0.028788911430376585,0.49569495380648465,0.016260100223628133,0.4595065603215851,0.01615602622675895,0.4534944614497425,0.02124656926556946,0.5868595212667578,0.02320839901329556,0.5440454100265355,0.03932159470189602,0.5054282179785854,0.034941653416603165,0.5270742456044447,0.029590360929651352,0.5166330750350703,0.8317572234311179,0.473068493499888,0.03788271126602251,0.44662420861515884,0.037707676672140235,0.5870204944993189,0.12626900572448718,0.413357205719455,0.043915308760550865,0.4859508499477132,0.09871723940027051,0.17651098901098902,0.538580148559939,0.1708700901532877,0.502043635849143,0.07005885012213968,0.5578051559606894,0.062249733629388425,0.48555167326655796,0.06941330482227272,0.49161979884467644,0.23400952347543852,0.3346870444606414,0.07339296573900535,0.5228936585857342,0.26335443072984344,0.488629788420649,0.10338023467241107,0.5239371614757105,0.8383204489358789,0.43156291426807347,0.040443007467004854,0.5732070806934677,0.1235261176088384,0.39890219774944413,0.04346300033481974,0.4874516881778938,0.1743734756408607
16,2.8985063411308496,0.03633310434317991,0.4251391031038708,0.029764751450956924,0.46112194861329925,0.14808361551401808,0.4532617837175369,0.014620218835622225,0.45839140964367164,0.06396217022387796,0.6589821060379457,0.13134934335005058,0.6841219042426294,0.10035857175689344,0.43864882321188425,0.06335918531817368,0.4094763979020357,0.01446302474650481,0.4317269213926237,0.20531056362335856,0.2225068070528368,0.016173097291605997,0.3329421291347002,0.0754108117452576,0.4315210520086501,0.21798116655755734,0.3850641417427797,0.0736659429638647,0.40115151216645634,0.027237258677826937,0.47520224569035424,0.015384456539071018,0.5180777576537086,0.019382251110037857,0.4902046618916044,0.022832499648491086,0.578952539839746,0.01961825472109744,0.5168778042096519,0.03675825822445351,0.5163653520787912,0.036136694638468136,0.6103719380948401,0.039971150513296014,0.5692912869506256,0.8585009845705265,0.43290521228924483,0.03279778322581901,0.4396800460148876,0.0368924656685779,0.5212962380573705,0.1038752892502327,0.37498143394415756,0.037850353010549384,0.4707024060263809,0.0939130831990842,0.05654761904761905,0.46114723798989726,0.1450094040482595,0.4565959376963634,0.060778401576780765,0.654248479052638,0.08581735462035925,0.42990371923285975,0.059496549238283736,0.4348717121660851,0.2098835496376521,0.3157918412900874,0.06934898201942796,0.42976613620970494,0.21583218215266536,0.38463115944554827,0.07679276442339564,0.5743652575640077,0.865374995634377,0.43309286868723557,0.03976118373417474,0.5210302458773849,0.1051856146593328,0.3941547239305161,0.041464020899319325,0.45746660992852733,0.164562083553669
17,3.1329437624488237,0.03556980383176857,0.4079946976581324,0.029490056873750697,0.4126845035881037,0.13602270630085256,0.47778471308822457,0.015536374315378274,0.38454328373125646,0.0526098971914763,0.5204437543570781,0.09172099277199919,0.5867394578906135,0.08099243001490003,0.3998076389040566,0.05938574096045535,0.3912738275148267,0.013893413050124731,0.44826002473061294,0.21371077535859861,0.49849922623570203,0.024371088588037996,0.5252569973418991,0.10504295055174837,0.385807666747304,0.20213382705585792,0.401247006630856,0.0749450031140398,0.44083571250239906,0.029285819473793696,0.39726372074830907,0.013021997932510222,0.4807643271498694,0.017826973538958978,0.44434239143925924,0.020787269113235782,0.3533803002822044,0.011560476495859878,0.4091404327810041,0.027787184629341724,0.5353677628802066,0.038752712612919654,0.611718606248886,0.04505618242960618,0.5976383269418555,0.8772008218138845,0.3876594225373228,0.029542871030300722,0.4276022131225751,0.03569773858636469,0.35859913992664955,0.07736377143914945,0.44810878894060485,0.04286007871308301,0.4512601516892235,0.09102304438293185,0.10027472527472528,0.4274741315329058,0.12988313325083634,0.3985535169595559,0.05208193827420042,0.5508494923393086,0.08803008737594417,0.3982180293501048,0.056764222291927076,0.450999178957863,0.2092199153277842,0.5254373177842565,0.10030460393407649,0.38910599436890925,0.19716240113448136,0.4208462593096076,0.07976144481769286,0.5995291469037615,0.8834888742622123,0.4542801269362776,0.040513174834891884,0.3862404349521436,0.07971837572964646,0.4490683286910639,0.04504716673941603,0.45421682984047984,0.16349794483109248
18,3.0543613252853783,0.03618044424089764,0.4204587025936455,0.02968293401797172,0.43174534606381487,0.14411975247452757,0.5031620149446643,0.01626495253751859,0.38737797282296377,0.05278969680620588,0.475317089609371,0.07630141619026837,0.5231724156257258,0.06196171991660278,0.4204965358252116,0.0615277001625934,0.3949979680733526,0.014152041758488719,0.47355793594944995,0.22204529430497533,0.5697706016434267,0.030109585940921734,0.555185588327681,0.11478242776748343,0.40250307130473184,0.21026760372180545,0.427918386728804,0.07976421833043496,0.4601081708110348,0.0312643456504925,0.417211292232757,0.013557677159745304,0.4747146069494286,0.017363723051006346,0.45057898902601334,0.021223209270280843,0.30171951536015373,0.010496883280762965,0.4175116679515031,0.028268578200171614,0.5259604235664913,0.03740715119761078,0.5361009151086575,0.03153167005714185,0.588732700884927,0.8726648336996218,0.41866590353043576,0.03185434376599355,0.44263996978929104,0.03698671685641895,0.3744239426881753,0.07959869353780122,0.48453781087960246,0.04710584326241364,0.4568680591650506,0.09127280818920228,0.10760073260073261,0.44341420591567077,0.14099548384354665,0.4024019275343623,0.05262597267882614,0.4851872952570859,0.05722719124932997,0.4160835468592282,0.058375573439764045,0.4755942292466939,0.22100507278739823,0.5603324867893587,0.11159554847411739,0.4062494752338358,0.2075785394031914,0.4464675775849048,0.08553586848191837,0.583441728735715,0.8749015249143463,0.46711051991210706,0.041909577844153674,0.402274317414402,0.08292638872593802,0.4790525888951194,0.04866607371615615,0.46396749161487366,0.16527856796322385
19,4.073896720412851,0.1082360125181284,0.35311270811274975,0.0259534451592479,0.3863136681535111,0.12782733526136247,0.46660256350912627,0.014904496414602423,0.3399965377298216,0.049167463647076484,0.49537835205660796,0.0768176606731033,0.581837103914305,0.06605896040129733,0.3444401673813322,0.05364653530324381,0.3386467686016535,0.012760526586349753,0.40125487107165025,0.193743960071789,0.2790113166971756,0.0171064512780986,0.45710815809232974,0.0923211140656659,0.3393629332588738,0.18860603052693925,0.3486658267231137,0.06888465333931,0.38976360032677126,0.02671073091791134,0.37131521708022097,0.012508456496321702,0.48709622179974177,0.01795930820445504,0.41661884921127457,0.019380737883701087,0.2883519083104129,0.010294574473357201,0.3955376246533531,0.027241808849214556,0.5457500638823227,0.03910303361936421,0.619349725788479,0.03928058339512401,0.6614554501474879,0.8959296589859906,0.31364352838423704,0.026309919841552436,0.39878330670185874,0.03401148477114282,0.38384841717263773,0.08026828656550751,0.37300941774251406,0.03756277707872004,0.4144713194809063,0.08670615360809418,0.1059981684981685,0.4023061124211816,0.12640709225413663,0.34861156770297996,0.04764049991131826,0.563783140374794,0.0663482147672736,0.33511724512772734,0.05048240888074741,0.40154414567633345,0.19016218626165862,0.44427073842930037,0.08406730712281424,0.3465835623646103,0.186779211044757,0.3552784458619448,0.0713917953001018,0.6682289130552399,0.9034139552163323,0.40890528810358295,0.03708926040816354,0.38889472709020667,0.07968783128235182,0.36391511337045107,0.038734683978787064,0.4189532499648627,0.15685037053570353
20,2.978637186937337,0.8263491336539196,0.3870135143021501,0.02836338729482541,0.39827822713232747,0.12583067074574728,0.4575432598396152,0.014358473525647793,0.37072213318675196,0.05412724779539062,0.5566966990541409,0.09004404886487735,0.5912533044048233,0.06556264537924678,0.40426822889681274,0.06157948496042808,0.4080740510267579,0.015761694064107237,0.3955937937294414,0.18996640471436937,0.17732023386879445,0.014814529498232174,0.4179779896195607,0.08789189464469362,0.3877430551201716,0.20465925079385533,0.3663537734233605,0.0732279198962286,0.39502327651068037,0.027567905725321647,0.43233031600207694,0.015584070249405228,0.574588112799783,0.03127594813369341,0.5000676684622479,0.025386414546013033,0.4646722431373017,0.015248437292049536,0.4399601316447676,0.03237875389320709,0.5186947435703065,0.035223156782267236,0.6089393408632591,0.03997596642410616,0.6185623742597695,0.8707034481081661,0.36538153979122195,0.02959577299218762,0.49202634836118997,0.044733552660519746,0.48373654075509276,0.10608316545541059,0.41860540761613263,0.04219523737883434,0.4473625502837899,0.09008228776226275,0.8324175824175825,0.3860165336151298,0.11447988857824679,0.38291685219323623,0.05353379725364893,0.612723564001872,0.07946487323781201,0.38580712788259963,0.05571116707767826,0.3908544702812069,0.18472604450746938,0.4056711803024782,0.0819922327451957,0.38063962698221676,0.1950019708909655,0.3617042536628441,0.07498224674868478,0.6209959452229377,0.8729865073897337,0.5020571531044001,0.04867348543833094,0.4830966557246482,0.10142039413986503,0.3932415910574263,0.04186529315421041,0.4421437461692497,0.15873649176348678
21,2.884189274536545,0.01900618273414243,0.4186854193935655,0.031190323814059867,0.42741219125606866,0.13584877880015633,0.47482422964051196,0.015392737674041873,0.4022848306164626,0.05763680737490376,0.48590386683762854,0.07375842693271253,0.5073051828224096,0.05086889420942849,0.40002346728186305,0.06116903659579552,0.4058543299086903,0.015140230921779631,0.4417956529335507,0.20751085411539885,0.40472322942269157,0.020425620671074153,0.500506117807356,0.10056335929586654,0.4050378725438355,0.2140793668641527,0.4363694680298955,0.08162092364916462,0.43386184571435366,0.030254505913713668,0.4265384096456476,0.020059185103022927,0.5127300362358241,0.022747071615179998,0.44842433925983355,0.02152532221845674,0.3745370549910804,0.013156364519517474,0.43251518161972247,0.030826519327595607,0.524399577344588,0.03719231268323525,0.523318270189011,0.03055211344373629,0.5855270279323485,0.8581470290545268,0.4113631025250867,0.03317467458354614,0.4556628280610181,0.040697173063821576,0.3945105705528279,0.08506436656391671,0.47876787034529206,0.04836305785491818,0.45049546049658323,0.08988327141783548,0.8324175824175825,0.4402067832640835,0.13097718400429587,0.42900914247192135,0.05842301970856074,0.5097523755264817,0.06182675443224909,0.3930340088516189,0.05838084119493193,0.4393471248863736,0.20287250885491462,0.4904755261479592,0.0932013481514168,0.40284717130046854,0.20670458467894925,0.44208465497809846,0.08423225332359902,0.5735715477285434,0.8590688392182667,0.45415641400475787,0.04448164943112494,0.39521906621349934,0.08455663184938572,0.4695229136088461,0.049803799649801084,0.45326889408188764,0.16121078454145799
22,2.90383157931378,0.026944508052820396,0.5581713590168991,0.044732190230380955,0.5754984273676684,0.20131733205175295,0.512095094381544,0.01866945818448429,0.5650322312368157,0.08432194187198075,0.4749741846267188,0.07488561364859328,0.4502357371750709,0.04538495873496986,0.5422858577685653,0.08418087368165714,0.5451076603634609,0.022420599672232845,0.5629396191434122,0.2736950781775139,0.6979168074944728,0.046115663220297386,0.49854760716931334,0.10476239911490709,0.556856739422769,0.29407461614481994,0.5603347963191768,0.11356843074087028,0.515750580426671,0.036693147743585064,0.4819270171077503,0.016617189596211626,0.44056462388614526,0.016517727315994324,0.44344563513356106,0.021777295722202536,0.5426897571132815,0.025799430382418873,0.49977310692144183,0.03594643692464092,0.489494294009582,0.032495327537542015,0.3778472368295937,0.022565518965122978,0.4290354518933865,0.7953983255657122,0.5787223224023982,0.05372025608434809,0.4674007904777136,0.04039183824692084,0.4772811314210478,0.1062020645697781,0.5508306140506022,0.05823061051944427,0.5151830262753486,0.10271093556339933,0.05425824175824176,0.581150815270465,0.20155187196273283,0.5870141111161973,0.08690751613017578,0.4196034345941767,0.04645621319188717,0.5436501281155369,0.08327682061394934,0.5660453625780724,0.2719364664420323,0.5078039586370262,0.10281278565479333,0.5631226525460254,0.29278751475726345,0.5619877537267478,0.11813104840578133,0.42674518476437817,0.7979569159780951,0.4664817404253001,0.04431094521992807,0.47880935722325313,0.1043192091307147,0.5597647508240156,0.06221131477993618,0.521848270818433,0.18438821852227416
23,2.8640094173563297,0.04175253797420044,0.4707240697974939,0.04256298056719688,0.49451290097129214,0.16247928582870586,0.49810859485546344,0.016752287094641206,0.4146142602699143,0.0679663762099828,0.45128400869302077,0.07252040667693616,0.48612974230071215,0.04931961449657396,0.46750401398906183,0.07278505568686541,0.46419681749488845,0.02319601071129891,0.5039225339128907,0.2484534807964228,0.6070300339518941,0.12013152882055632,0.5142693546192572,0.1419646381205359,0.44395144876586606,0.2398691108259622,0.4297146387276765,0.1131924561482896,0.4639401757160011,0.036813309299622274,0.39443343949869236,0.0160657896440836,0.4378672486397504,0.017617686843374215,0.4446109170831002,0.02505995641629577,0.3423195875519811,0.012075195405019317,0.43685029300617956,0.03337088270017479,0.5165145591194418,0.0342005772562818,0.40729960824573364,0.022318172759133746,0.5580334684713033,0.8236068984381562,0.5187744258725033,0.06662724130705548,0.38837794833269945,0.03900228377068206,0.4404497716897734,0.09565471001954098,0.48298457878017287,0.058266129218290066,0.464554555398337,0.10199507942544916,0.07898351648351648,0.511938865508642,0.1626187307692986,0.40580757114857247,0.0654395741346821,0.47899261399475046,0.05213663369683823,0.44550974454538395,0.06450101393865898,0.5000546872709145,0.24559162515034338,0.529873701712828,0.13548278710804096,0.43810837890635934,0.2304026351655214,0.45507511589807936,0.11948614971442577,0.5780862068447282,0.8350197201620244,0.42289619917554977,0.0451204165084093,0.4505371913396736,0.09333110628615654,0.4415252791745442,0.052416479855857234,0.47153379629333547,0.17512890604085474
24,2.912343141759828,0.2374627891000687,0.5316829933220506,0.038418796816914645,0.597419479964955,0.2012396053521866,0.5105056304197195,0.016828959235483908,0.5057486177689416,0.07090136797963503,0.4590062272249362,0.07180598515039419,0.45917460740816557,0.04615558070206867,0.4821722147054298,0.0685093519788954,0.5439543832467648,0.02109777514844855,0.54572568389669,0.24636083456672142,0.6025042789120613,0.0315582413671065,0.5293787694123311,0.12138820101687708,0.5372232652747904,0.2723494803331796,0.5649006227788477,0.11119825338108368,0.527363105074636,0.03855292686009665,0.4258183182262344,0.014153652591855696,0.39235966586545373,0.014668243307242144,0.39301496773873246,0.019405687731098274,0.4876397597981016,0.01955286813915226,0.45182323124481427,0.03162674226343023,0.4847113052849009,0.03204559841584435,0.43228387344818264,0.02527523909450741,0.47762182210916737,0.8213037497660536,0.5396788606610758,0.043723859272083804,0.4388343343094474,0.03858038539935753,0.4468651604859785,0.09093048146417453,0.49418177001043007,0.049927981635626444,0.4946766518689554,0.09836768649882763,0.23305860805860806,0.5948248674453077,0.1922442381231837,0.49981273953734184,0.06926781476944222,0.4558335198486175,0.05036566156961119,0.48734296141004735,0.06529871362111661,0.5438996569216785,0.2416605405759028,0.5415195654154519,0.11571823271913782,0.5441529854296925,0.26762783858268896,0.577054794520548,0.11840382091393252,0.48285417681112375,0.825900941830148,0.4244613380064285,0.03948322087281564,0.4705010743826794,0.09590095080883682,0.4897272551777392,0.052748832843830334,0.5093320779088879,0.17788506726922057
25,2.8876341179248697,0.03618044424089764,0.4937922582473926,0.03327060159010908,0.48731078351014323,0.15267480521376045,0.4809401408726527,0.015515419046028253,0.5229437862958349,0.06697534843322608,0.5065117979107496,0.07468729966237182,0.46693755978930546,0.04777728004658226,0.465717856597993,0.06637845970219175,0.4762366178580953,0.016153106308114222,0.44016200385535004,0.2058720194522185,0.4464668444026243,0.02192372178781981,0.4841083267882669,0.10047812475369447,0.49960327642537744,0.24191265088207703,0.5257395169512288,0.09343518943127616,0.5344788728088574,0.036010057714867205,0.5278033310573879,0.017331928715677895,0.49044450444166965,0.017681680953512337,0.5226919683860582,0.02503057774292377,0.510927963295527,0.014627071087217189,0.546005996794091,0.037286318259965416,0.517809822147343,0.03517571429534587,0.42432519432320615,0.025226764273838194,0.48154081647153885,0.8394767853760419,0.5819506799944403,0.04514541622443797,0.5331920678074524,0.045219232282504,0.5077379679731874,0.10540588300688897,0.5149691407948137,0.049458212099595236,0.4996288113769456,0.09346652570547254,0.1059981684981685,0.5094421703813504,0.15487265799299854,0.5331351146658233,0.06610234901315974,0.48028160416709054,0.05425460743817537,0.4712609674664182,0.06541195879257503,0.45880597014925373,0.21188531674123054,0.49462264258381927,0.09988561835227841,0.5065625157429849,0.2392181688183156,0.5472968733660986,0.10238502291570539,0.4826452761396358,0.8466260932246474,0.5660354658870105,0.054435472277998144,0.5141099493090489,0.10555282515603201,0.5186543649079156,0.051224523137846194,0.5069044095638707,0.17098788448841354
26,2.861266136260426,0.11044958400122128,0.525790807606693,0.03769570547126212,0.5466391798074095,0.17703479727008886,0.5106898928749715,0.01753111628801096,0.5128524733815671,0.06754022516439791,0.4157866123721896,0.07500295453015723,0.39031553498387905,0.04523082551893685,0.5184413586455914,0.08316192931332377,0.5419959551960174,0.019539316726730628,0.5225368409232118,0.255965033023169,0.5284545398828854,0.025884054906382778,0.4950132413112594,0.10229186026797389,0.5425554386942497,0.2686939098502941,0.5599260647700539,0.10730129261834227,0.5357874865614455,0.03609734850671098,0.46220107773512087,0.015037574031149008,0.42475207396657905,0.015424933432694299,0.42616511486691633,0.0205676230188487,0.5543372148870287,0.020140824831062432,0.4599476909535825,0.03190694196392059,0.512071712622791,0.03428857210496371,0.5044235465842626,0.033241479081451086,0.4886997927252869,0.8321199372960072,0.4573325262945144,0.03435816480882,0.4736509668636365,0.04144053719845808,0.49569516640032596,0.1026334894721048,0.5260068823690122,0.05293358927751236,0.4973872766646339,0.09819477061433744,0.23282967032967034,0.5597041959033969,0.17522767163670183,0.5160386505594927,0.06889999319083037,0.3950851527051499,0.052684275997335855,0.5251071511763336,0.07742987993979765,0.5199394481423921,0.25138844625438306,0.5093322931851312,0.09984336389628497,0.5536229855976177,0.2704764949537419,0.551126738471191,0.10428106020591787,0.48829836877130334,0.8335768766485137,0.4590850690976448,0.041742040980095416,0.4961513040544464,0.10307962235166629,0.47756287491816024,0.04851213104770952,0.504254519381855,0.17726182142524824
27,2.881233170108753,0.2486069765666743,0.5246621424462471,0.04004455701007461,0.47959254901092047,0.17085058155783464,0.4706561594933085,0.015790019148955267,0.48194037935059236,0.0637313650488994,0.5963111358026183,0.11011656169347814,0.5867720590551027,0.0661229118524685,0.5173345864544353,0.07969988431837458,0.5211482290489313,0.019645352962032445,0.5170022642378799,0.26069089596228073,0.6763468320728682,0.03792704753336289,0.6140326943764741,0.13111949764970715,0.49851138439462195,0.263128552200413,0.5624132285182131,0.10754626812910878,0.5297098630923366,0.03571799063914177,0.4995342488903063,0.016294393831918816,0.517462161125048,0.018039612262898352,0.5131696910212662,0.023782370655564985,0.47589460440668463,0.019608585261052403,0.440545826554109,0.030081182374724215,0.5280763698042674,0.03570188733972305,0.591779046806752,0.04016723573654134,0.49027501964136,0.8300167148377618,0.4263290800425107,0.03309431365219063,0.5359483918307447,0.04549582887648342,0.41885703154813564,0.08787524661556707,0.5601710225959231,0.0549530577745537,0.5220952308316023,0.10143238134327354,0.24954212454212454,0.47565845605393053,0.15947940716675074,0.4921558672864294,0.06343457574809312,0.5516252263617312,0.06256413990225348,0.5161324637005978,0.0771565361558743,0.521091692812949,0.251422722207567,0.6377699070699708,0.13587187389950317,0.4870872539196534,0.24591979357301258,0.5811736786457062,0.11719672665263886,0.48505383325217766,0.8369693453606999,0.5429306571994117,0.05026043404127535,0.398548684607152,0.08287304170209496,0.5450432920993578,0.05461174638663285,0.5195225844174222,0.17814669523303303
28,2.977142888055977,0.036256774292038774,0.45231543931903256,0.03115407971997952,0.43079475160835917,0.14551009765771084,0.4473331614737293,0.016652407710057392,0.42783125359165913,0.05751809469325501,0.527213873741857,0.0781842258870715,0.5555848624304671,0.05460192559298811,0.46625083814653473,0.06774100659461073,0.4620798039190785,0.016056627878337705,0.4974733814495949,0.23992458447224033,0.607302113273325,0.031881782633572164,0.4927066003305288,0.10091405252655083,0.4155901630169342,0.2171769948034728,0.41697348974812226,0.07757340431986202,0.46664792770269925,0.03162503569032463,0.4533988246854221,0.014458741842355731,0.523699216411241,0.01856752409263329,0.4873042269039303,0.02280328172819117,0.3709254127165009,0.012329536267521698,0.4435656096924446,0.031432672645975046,0.5115029997999896,0.03587666555309765,0.5631393483550396,0.032539942091140084,0.566798468481454,0.8577421681139108,0.40451877503282074,0.03160422954647782,0.45537429428832144,0.03802718666443831,0.43467987251859086,0.0909642066939127,0.5000212520829993,0.04957085101032806,0.4761933061815645,0.09240120486269292,0.24954212454212454,0.4427840699995683,0.14498769382873977,0.44230213851448363,0.05852458521738726,0.5328143121655442,0.058863882360503626,0.47380153738644304,0.06607166168044588,0.5018489575697153,0.2394292702959272,0.49076137709548107,0.09587412475637039,0.43005650682056074,0.21945186081126036,0.4147228322121138,0.07955938193526414,0.5476847718924898,0.8539433245618042,0.47122709608295354,0.04270220053375945,0.4205236129125035,0.08597028792381894,0.48441596777274226,0.05105648662345477,0.47107859836871663,0.16636956337739464
29,2.8448151778687083,0.026791847950538128,0.48440711314163754,0.03442611308057428,0.4355379071501887,0.1460124569775768,0.4432343455246833,0.014642185931174527,0.42931222181372986,0.058068875949595436,0.5472946361055588,0.08170062256581559,0.5330049883472365,0.05047158074770258,0.4703002990969941,0.0704016271550862,0.49153305690664567,0.0176439049513319,0.5072926832328953,0.2406635115123691,0.6724897274565101,0.03950715502135303,0.44982426706654566,0.09454074551161763,0.4249566714366061,0.2259671592708091,0.42850787298894333,0.08233880430467427,0.46374791734248655,0.031994838158402615,0.4455783286383441,0.014897841314120738,0.4895401712670789,0.017419804835116213,0.4611645085956849,0.021605491905121007,0.3913324687218467,0.012944951073948715,0.4430690513496797,0.031234646705905925,0.5091252961897664,0.03518311875786913,0.5487336215061854,0.031125136859992686,0.5570634796572355,0.8532803298016048,0.4106866587318303,0.03389717386135037,0.4285272816947025,0.03679646451139887,0.47023455898393474,0.09926782485119291,0.49671661221017177,0.048942501792147784,0.47820060558296623,0.09326826413107124,0.07348901098901099,0.4158938164443887,0.13301353044077102,0.46992180835348113,0.06222637070610339,0.5473106191629193,0.058835337544693625,0.4726523798431555,0.06591483893386968,0.49574729495938774,0.22621159463459967,0.4515203626093295,0.0907710088312873,0.4169218196371697,0.21783294939008419,0.4342494800562352,0.08426250028044222,0.5471878813564417,0.8540540412242905,0.4450725933862386,0.04111876480048298,0.46310567113657797,0.09618437429464594,0.47630501906445766,0.04875599731456476,0.4696573955008152,0.16493177569965292
