epoch,train_loss,train_accuracy,train_1st degree av block_rocauc,train_1st degree av block_prauc,train_anterior myocardial infarction_rocauc,train_anterior myocardial infarction_prauc,train_atrial flutter_rocauc,train_atrial flutter_prauc,train_bundle branch block_rocauc,train_bundle branch block_prauc,train_complete right bundle branch block_rocauc,train_complete right bundle branch block_prauc,train_early repolarization_rocauc,train_early repolarization_prauc,train_incomplete right bundle branch block_rocauc,train_incomplete right bundle branch block_prauc,train_inferior ischaemia_rocauc,train_inferior ischaemia_prauc,train_lateral ischaemia_rocauc,train_lateral ischaemia_prauc,train_left anterior fascicular block_rocauc,train_left anterior fascicular block_prauc,train_left bundle branch block_rocauc,train_left bundle branch block_prauc,train_left ventricular hypertrophy_rocauc,train_left ventricular hypertrophy_prauc,train_myocardial ischemia_rocauc,train_myocardial ischemia_prauc,train_nonspecific st t abnormality_rocauc,train_nonspecific st t abnormality_prauc,train_normal ecg_rocauc,train_normal ecg_prauc,train_premature atrial contraction_rocauc,train_premature atrial contraction_prauc,train_premature ventricular contractions_rocauc,train_premature ventricular contractions_prauc,train_prolonged pr interval_rocauc,train_prolonged pr interval_prauc,train_qwave abnormal_rocauc,train_qwave abnormal_prauc,train_right bundle branch block_rocauc,train_right bundle branch block_prauc,train_sinus arrhythmia_rocauc,train_sinus arrhythmia_prauc,train_sinus bradycardia_rocauc,train_sinus bradycardia_prauc,train_st depression_rocauc,train_st depression_prauc,train_st interval abnormal_rocauc,train_st interval abnormal_prauc,train_t wave inversion_rocauc,train_t wave inversion_prauc,train_ventricular ectopics_rocauc,train_ventricular ectopics_prauc,train_ventricular premature beats_rocauc,train_ventricular premature beats_prauc,train_mean_rocaucs,train_mean_praucs,valid_accuracy,valid_1st degree av block_rocauc,valid_1st degree av block_prauc,valid_atrial flutter_rocauc,valid_atrial flutter_prauc,valid_complete right bundle branch block_rocauc,valid_complete right bundle branch block_prauc,valid_incomplete right bundle branch block_rocauc,valid_incomplete right bundle branch block_prauc,valid_lateral ischaemia_rocauc,valid_lateral ischaemia_prauc,valid_left anterior fascicular block_rocauc,valid_left anterior fascicular block_prauc,valid_left ventricular hypertrophy_rocauc,valid_left ventricular hypertrophy_prauc,valid_myocardial ischemia_rocauc,valid_myocardial ischemia_prauc,valid_nonspecific st t abnormality_rocauc,valid_nonspecific st t abnormality_prauc,valid_normal ecg_rocauc,valid_normal ecg_prauc,valid_premature atrial contraction_rocauc,valid_premature atrial contraction_prauc,valid_premature ventricular contractions_rocauc,valid_premature ventricular contractions_prauc,valid_qwave abnormal_rocauc,valid_qwave abnormal_prauc,valid_sinus arrhythmia_rocauc,valid_sinus arrhythmia_prauc,valid_sinus bradycardia_rocauc,valid_sinus bradycardia_prauc,valid_st depression_rocauc,valid_st depression_prauc,valid_st interval abnormal_rocauc,valid_st interval abnormal_prauc,valid_t wave inversion_rocauc,valid_t wave inversion_prauc,valid_ventricular ectopics_rocauc,valid_ventricular ectopics_prauc,valid_mean_rocaucs,valid_mean_praucs
0,4.766765982085129,0.4755161362450622,0.8248020168340116,0.24370332701560152,0.7780694867776832,0.018296435208289885,0.9634214735762126,0.7988636753776824,0.9104094030525274,0.5643763169025547,0.9198632729823851,0.4955834215013963,0.4003124237204057,0.0053423699273077345,0.840038948353929,0.15556390782925428,0.7715660249964654,0.033202265978496105,0.8497650964040077,0.09842651694118187,0.9191302002441135,0.26583633644421695,0.9394628415221875,0.2675167726974047,0.7465502902909785,0.18345883359966897,0.9093214701528494,0.3020622539041466,0.705819963453523,0.101448642694831,0.9266177694643224,0.7192171478798459,0.8457551382706576,0.255960388713221,0.9141237750568003,0.2638886259993712,0.706654060940953,0.022360754358451602,0.6477932836069488,0.05618017774868712,0.9155854224151604,0.5124049985438079,0.8551543494579603,0.49375582759092085,0.9794563218710363,0.9323767366273953,0.6619279610379583,0.058803082381949506,0.6149086982330849,0.05141320013262281,0.7459816191168682,0.19760041161803826,0.9767271030212895,0.5077423454697699,0.719775830959557,0.031582291861706295,0.8144071942894029,0.28285063203510447,0.4784974286353134,0.8375790567408432,0.2194754331286193,0.9650853068220987,0.7998946312940441,0.9167783201979587,0.4956525267524813,0.8232964154442164,0.14470260783799405,0.8737242818125172,0.12625764148283403,0.9251501463717423,0.28734460143685775,0.7319463690001166,0.16797482804235522,0.9134478875997454,0.2948005890280266,0.7077539806235953,0.10837385327215393,0.9220672038807101,0.7125578483727051,0.8354299543074939,0.28976479715463094,0.911490999726294,0.28414135525393247,0.6206743311528066,0.04895749331055374,0.8238850563241478,0.44145966788121566,0.976185250745379,0.9207148001443939,0.6565248055046686,0.05734774598794266,0.6052397215966115,0.05745475462896213,0.7288964391414138,0.17756075268971466,0.9747357242099233,0.49789624454712683,0.8289416448001201,0.32275432485508126
1,4.290787353879552,0.5351916722565899,0.8455602229410123,0.3449572113587627,0.68732661233032,0.01535062489072944,0.9755521331117719,0.8390448849057945,0.9124552452227236,0.4180117756355171,0.9551933108532439,0.6001748318378732,0.5507059061294017,0.008463585510583405,0.8717856044371953,0.2837437244331413,0.7443431590046339,0.034905881661907265,0.8140852538147374,0.09963406100876318,0.8898963688604224,0.35553354557461514,0.9418721903490177,0.26146148051964235,0.6899311869458622,0.15929930685654095,0.86575948170646,0.24964515027608822,0.7184027510840435,0.11679087389876017,0.9510134513768129,0.7986454926684916,0.8408852649593842,0.3907886268280004,0.8750399339935246,0.21722838591092092,0.7212766239971518,0.04478764296060336,0.6356483058447707,0.06961522105414633,0.9480985702694998,0.4600721349790686,0.8710439809923967,0.6103661387534528,0.9809095935894852,0.9426218372071324,0.6850431961670411,0.07381187485766984,0.6054536130022151,0.06582833731758436,0.7265227126280427,0.16341622650984577,0.979163713194594,0.6116035580884873,0.728814717381986,0.03680512496542438,0.8152512260810278,0.30639287186924247,0.533353208615935,0.853730985282948,0.3543057176123204,0.9752142566646527,0.8304947797773795,0.9507837383264839,0.5896803671303207,0.8600845811403461,0.26149247835291156,0.8405890942655647,0.1390132134725946,0.8921923012937192,0.3675517388542791,0.6800849212982714,0.15239443084439497,0.8714799923880785,0.2404700942302259,0.7171640489158044,0.12323101126827378,0.9476551649976023,0.7948464673016377,0.8184545476165039,0.39625371001947524,0.8756831734772912,0.2192735891711845,0.6124507422930784,0.0564661838447307,0.8471484470835776,0.573894288945031,0.9758397872143991,0.9298197762437285,0.6804157345873719,0.07120127446635549,0.605338325936961,0.06284857524375412,0.7019949449412813,0.16590299991251514,0.9754599374875468,0.6303980496960936,0.8253560381690255,0.3662915129677477
2,4.106556940515874,0.5779980621599463,0.8713510401232915,0.35731560538788776,0.7295750751108903,0.014147470542912582,0.977844671268269,0.8731082872551081,0.8724496504612478,0.43647713314506603,0.9553180190295536,0.5773615753999146,0.3867804783731219,0.006443708836394349,0.8593062338926017,0.2847344077023709,0.8450351389299127,0.056445661180423795,0.8690775482994509,0.11624985548877159,0.9371474474447514,0.5048279089915034,0.9684021566602,0.5437423783393095,0.7889056552197196,0.21824193658344773,0.9292398736257185,0.36635129780195874,0.7681336314372561,0.14192322081282205,0.9497825800060029,0.799400635841486,0.8978178104165926,0.43084075123909715,0.9568906604408258,0.36933480341802677,0.8329062780835246,0.058571861125167254,0.6830411331168995,0.07351693617389456,0.9176267584874258,0.5233916317565205,0.8965138889604622,0.5999708296841801,0.9766268963308415,0.9174052894132065,0.6844377787664963,0.05900329353806604,0.6713683542091634,0.08426877380945111,0.7504396268653218,0.14782119095667903,0.9869744251437403,0.6323642539057734,0.7675500116888755,0.044516437748738605,0.8418719563848946,0.3421398939288214,0.5688305880599239,0.8713956264275677,0.33768550122552715,0.9788010440531477,0.8666163813383004,0.9509952024851878,0.5777081332961842,0.8424480022225701,0.27578363086098484,0.891292067762656,0.1463423095881112,0.9382821871041883,0.5116643750113311,0.7744035581436711,0.19781628487296812,0.9369946013513737,0.345282424133988,0.7557670875900142,0.1416754947438551,0.9428344862589851,0.7806692016110314,0.8740960795595517,0.4003855853865867,0.9608010563892918,0.3940510241460172,0.66397489130009,0.0617461766643369,0.8660868959552235,0.5727557918888138,0.9720095633403583,0.9080417941864801,0.6769471419574188,0.06006409822614665,0.659520154852778,0.09034766570378772,0.7434127220763156,0.1606316640041009,0.9869175349510897,0.6466766899379673,0.8572094686200779,0.3934707487803431
3,4.004663326545329,0.600059625847805,0.9419044110765514,0.5260163398587759,0.73495930996504,0.020639832482829145,0.9868863704292459,0.9037191995267168,0.9306986829494807,0.6013966678281205,0.9576817009122851,0.6079168455977096,0.5385065516242797,0.008982426459829248,0.8984100156382812,0.3536463150686982,0.823768119458548,0.04473391171667644,0.8725649988609864,0.15198880555214345,0.9468942567750865,0.5675191572260221,0.9514108542058834,0.5421320341003532,0.7468612579756799,0.20109265888092293,0.9440550866229973,0.41891570854916893,0.7744727765645415,0.14590606557163396,0.9528947717181926,0.7689369278513789,0.9296852967778318,0.5006030164995926,0.9430340110367872,0.29665956348128847,0.9134885091191769,0.12438642334998616,0.6793519689863349,0.08062333979681233,0.9517396942230704,0.6330201860930665,0.9514824281589204,0.7508106776219908,0.9914014301425774,0.9731971988592945,0.6825526002272418,0.07902063897242508,0.6884015173872707,0.1264978682314429,0.7448621851756514,0.15893159488179456,0.9900913712525884,0.7399580069113526,0.8210073528082561,0.05230267455715406,0.8625580566693624,0.38442792909359924,0.5917120071551017,0.9398365152979521,0.47343112231399886,0.9865863220091013,0.8925477791589734,0.9508387395050806,0.6035348428689261,0.8753742318572794,0.33751050630828333,0.8864643570525924,0.15631591644000573,0.9489331079739746,0.5398697884715178,0.732471165641418,0.17972519159390132,0.9453255697622674,0.41634847633259026,0.7600727334073321,0.13678394002297256,0.9472448544121417,0.7577058554760485,0.9030453151959441,0.47665524929343,0.9427681155622332,0.2774130997639575,0.6597430373300952,0.06604328671983775,0.9320467559037436,0.6951543225853121,0.9890531443282995,0.9653201097662014,0.6772537154684221,0.08390493070357566,0.6880755321808139,0.1517054460545076,0.7328089419112614,0.16925244631079214,0.9860487473693179,0.7273239103634827,0.8675784685352248,0.42666032739727977
4,3.9087927493749115,0.5922337333233957,0.9244387095762835,0.4846990315297857,0.7343700381958453,0.020659237728453152,0.9885257899442296,0.9197853444062815,0.9432624190841029,0.6418354913288641,0.9725569297293183,0.6791425391658874,0.6352670037331616,0.02767428224049673,0.9249295100485952,0.45018822711390516,0.8537074402856808,0.06684681970921194,0.8976412912101691,0.17368095016103954,0.943409423312098,0.5389125528402521,0.9559878633875257,0.5112361828368654,0.8158298304435819,0.27532098316254394,0.9496435326245541,0.4823819587498413,0.7964622801299274,0.16862273724292853,0.9667068754416329,0.8537389701722361,0.921843105435185,0.5532852509369629,0.9506936643888303,0.4961053702359602,0.8584776037372904,0.10156058062988678,0.7217084528971506,0.08856504064144685,0.9708870980515972,0.7620110704603541,0.949703004765643,0.7447206679486056,0.9894172675702289,0.971967552264285,0.7437197148813967,0.10055529659672938,0.7407541825881279,0.12980503113702258,0.8100233288651035,0.21163017740965717,0.9854258284313413,0.6828620117657267,0.7865800525585769,0.05573988763620364,0.8789619348635993,0.4145753054093123,0.5948423641648655,0.9266648563608015,0.4530845668045205,0.987688982178837,0.9091972797111981,0.9661735919185844,0.6578124863216424,0.9021462795102407,0.4060853349354753,0.9163773097596627,0.20530567535996885,0.9400934849895569,0.5465858062072382,0.7964378633108609,0.2398073830602005,0.951734049472337,0.4208986472792451,0.7789991871648733,0.15535509617344517,0.9602775508928694,0.8279603644543463,0.8946039326151781,0.5149007523130321,0.9472518737224619,0.4672648922701289,0.6833192643660151,0.07344340012344112,0.9218406810460614,0.6922857401978982,0.9856216698341078,0.9647766710001993,0.7375359166302982,0.10988606754024612,0.7285747004291279,0.12817205161041748,0.7976484712722414,0.21851387399350813,0.9784939852393325,0.6871382240609778,0.8842886131954447,0.45676180596932264
5,3.846021138630471,0.5045340488435069,0.9032844670264516,0.5573222714127022,0.7338803265988483,0.019522991731989757,0.9770655205052367,0.902360133279415,0.9134118987521536,0.4873276966414619,0.9670304036695078,0.6230799678252243,0.7052505295280224,0.03368065940982171,0.9120248774218342,0.4261271779938773,0.8293257123610692,0.05862200164918568,0.8785573808884051,0.14081330831334,0.9014864029871312,0.4592710880482001,0.9648687674787736,0.5385808219520186,0.7662141879662738,0.20385696729246489,0.9270112230366472,0.29042164114612656,0.7659609516156832,0.163493044146387,0.9579881717491332,0.8420050352395749,0.9038409001545689,0.544430289657954,0.9612616900711841,0.577026775317356,0.8474150160052881,0.0939561681752408,0.6570518897253204,0.07420723105422301,0.957792124548074,0.6515496622808506,0.9280094179136185,0.7324155999907085,0.9814326141081875,0.9618604906364769,0.5727449651967038,0.055117692743185814,0.7193390328834642,0.133135362228176,0.7047749559054401,0.17193813489265614,0.9852225232448968,0.5799383901149984,0.7393207644984187,0.04661856020031538,0.8541321005866791,0.3840251541990345,0.5009316538719535,0.8951586461646976,0.5210545931654548,0.9757710399817702,0.8861104969557824,0.9577105844814688,0.6038108346149224,0.8876918565295714,0.37231095239973316,0.8888814881461939,0.1632624393670482,0.9015179951964345,0.42693610040402213,0.7445805301942291,0.18217125604273218,0.9241960459969133,0.25433981810780537,0.755816851375781,0.17411231500620827,0.9507776494898647,0.8242272380954467,0.8767624518556879,0.500951004627159,0.9619897855191973,0.5724108533124143,0.6344164479611423,0.05911638770891707,0.889253918156377,0.6731292498165089,0.976313354015143,0.9537552381556988,0.5670406199285523,0.057197886395798286,0.7093229880422872,0.11400596985654214,0.6968859771020639,0.17975255536035678,0.9802490032423554,0.5497826177496629,0.8512809070199858,0.42465462142853755
6,3.792115233823565,0.6066681573128618,0.8950177411023303,0.46031438925577545,0.6992322458804385,0.016403905448183254,0.9837817697263216,0.909145388175517,0.9233639014819179,0.5928240645327388,0.9659603127496157,0.6398771822285987,0.5753310370350281,0.019400947286409287,0.9139372424679246,0.468393750057236,0.821654690630031,0.06189607822147323,0.8780720220863216,0.14726024229372428,0.9095471351012501,0.520331754357048,0.9364692247612809,0.5454056669769979,0.7711136175714544,0.2845582587534671,0.9152931396680106,0.34745024251307,0.782519823376507,0.1619490179889941,0.9668164825931701,0.8539736011397006,0.8942307902393108,0.5561528344324049,0.933819752483315,0.4391388136447141,0.8478632833538027,0.10105490893991563,0.6698021524735329,0.08501585586176419,0.9625510032540264,0.6880109822011395,0.902498180604297,0.7114054418636435,0.9744648905183171,0.9517414281473349,0.6431878569038488,0.07910251851085952,0.712747475715208,0.16269657257670936,0.7219334320326799,0.18744025546184695,0.9847105995165942,0.7069297644406807,0.7609621124172625,0.05935352396864166,0.8498845153979184,0.3984158292325404,0.5987925765819483,0.8973686683812528,0.42249523874059525,0.9829925035495836,0.9005371392290675,0.9541046479981506,0.6038484437330398,0.8801953127583902,0.40251893488842394,0.8836344828991887,0.17356561798807077,0.9138917897615273,0.51180826973636,0.7523846359143814,0.2643726079826394,0.908339655129894,0.30069755057573483,0.7646109031096695,0.14776190784314436,0.9594498217301585,0.8286350461569424,0.8730091388561646,0.504544648551992,0.9344615704909822,0.4320387089039048,0.631277860472404,0.07491015469696868,0.8648922169134616,0.6509843241452715,0.9665405121000086,0.9398622441819645,0.6299726321483732,0.07610530763297381,0.6949866287490061,0.1721634820926907,0.6971884533904821,0.1910666722703118,0.9794982902662918,0.690386994255752,0.8509894591904933,0.4362264891371499
7,3.7534160119063076,0.540831283694815,0.865163730238312,0.48375282762937843,0.7347697308038136,0.02022669649748774,0.9832476010748092,0.8803638097255054,0.8775405611815791,0.4542338054515219,0.9518960824775143,0.5856453137415375,0.5701228522509644,0.026287695336197472,0.8928743375869028,0.4429231374911058,0.8023751555086985,0.04566406206854138,0.8448682761850934,0.10553533525076589,0.9104745146516893,0.5448715837878041,0.9660670645018483,0.7024630000673645,0.763080725213845,0.2373638277776497,0.9412939694960636,0.43095398904858356,0.7478105579759825,0.14631781303368058,0.9669738942425163,0.8595116552123965,0.9103893341520461,0.47102617236177036,0.9124980009261268,0.2901257254449057,0.8028350054318727,0.11195628702962715,0.6292480814462096,0.059129363549137656,0.9307843796213695,0.45793486773470327,0.9398852306295196,0.7543760106491284,0.9834597370021888,0.9587783394090658,0.5851249921862647,0.06480803585831763,0.6831373009686957,0.13158800640385854,0.6447517565587972,0.12708143620584694,0.9841114176206425,0.7600449330224183,0.7855542120242528,0.047967307954562936,0.8374199445169488,0.3778122606571431,0.533874934784229,0.8581688623513424,0.43714268182660077,0.9820583122705698,0.8716275054300322,0.9366659720348044,0.5578891351906943,0.8541083370633409,0.38780541697425364,0.8528745697863344,0.11944941479407349,0.9113149935272095,0.5193063897820047,0.7435495928150365,0.21523740187947998,0.9376935877658604,0.3705419037047526,0.7299745094393034,0.1364360653218241,0.958984424208328,0.8281210024801422,0.8836988532682406,0.4274081523618998,0.892996725717314,0.2777324966902203,0.5907099768890282,0.046358219765204364,0.9042652703101673,0.6797934518368697,0.9779123447786098,0.9470628367767059,0.5814484316241438,0.0637200826646929,0.6712437084778379,0.11836436244201379,0.6324516340464414,0.12357804092975995,0.9801154984324926,0.7369283604562571,0.8358018739371793,0.4139212063846043
8,3.7091096236345584,0.5099500633524633,0.9030024685852137,0.4300736858862148,0.7122164479626981,0.01604289337048856,0.9905585913000485,0.9370026094300401,0.8954037466155905,0.4872898850148381,0.969941298369182,0.648352985430636,0.7269835319191005,0.04118005390455088,0.9074061029087936,0.4379198627805596,0.8243686830315611,0.0632614030254858,0.8777774440789021,0.1378579429961356,0.945121486867482,0.5395180574170378,0.9676619744670437,0.6664035055168844,0.750424066136596,0.19225240780033054,0.9353273409924393,0.3841993664126781,0.7656851309883723,0.15310411979283522,0.9682577577799981,0.8687633168933094,0.9502447115385004,0.5975491666124699,0.9518244469355573,0.4894372688855895,0.8567239202028979,0.11639299219362258,0.6495682824908074,0.07107127627058504,0.9545255012087467,0.6732072088400879,0.9575521040001512,0.7625718687428308,0.9887159892085692,0.9657621533674379,0.6465876590784573,0.08147126691616505,0.7390541267897953,0.15281258667808104,0.6817526727723866,0.13507891332746008,0.9898021110269566,0.7382194087090787,0.8281830278752872,0.060533991710466695,0.864247060190042,0.40175297029355184,0.5168815681597972,0.8899076621552905,0.3929785122948318,0.989604976713868,0.9257497294362663,0.9584303825144077,0.6060364859611103,0.8747561897916121,0.36086433666130124,0.8805829504358915,0.1415525669201951,0.93981335855345,0.5234662448613393,0.725234124574304,0.1746348207018534,0.9358533652386215,0.34306818785870297,0.7394424890391867,0.13309041247188733,0.9585922530771622,0.8352472950328779,0.9225948076020006,0.4987133560573408,0.9480789977113506,0.4485094120421544,0.606090622429394,0.05644446837123984,0.9292887646943858,0.6963875625994754,0.9863572892836984,0.9597029641219635,0.6410558280653431,0.0696122203132104,0.72393255044418,0.14713892342521076,0.66357425701131,0.1348577968275303,0.9840347702878671,0.6745203873317273,0.8577487178749118,0.42750398333106415
9,3.6829528038091435,0.5862959926461454,0.9345699078387423,0.5522812058517877,0.7407655866116458,0.0179210857093444,0.9887301519313125,0.9314765107118886,0.9274947140773458,0.5861787284937701,0.9745580661636764,0.6928881847726355,0.8346773269267952,0.07752540149814556,0.9413996857295367,0.4974205828856611,0.8608368467058101,0.07839872043733179,0.9014980825272109,0.15527305546203687,0.9476721685234099,0.5882633195922611,0.9700668467482734,0.6984751519442066,0.8028223305878998,0.2974224629386401,0.9456511775124352,0.4281411635883064,0.7989300390720211,0.18390093199422775,0.9728827703674024,0.8808820904081658,0.9207026544208261,0.6348077309480484,0.955255161599244,0.5881829553929029,0.8987253385439701,0.12546807747521838,0.6879924930793473,0.08186211677039774,0.9719602340893108,0.7818368587459454,0.946537685682859,0.7744615278202176,0.9889983675113361,0.9764090889202925,0.6930881260640469,0.10759470213753633,0.778512285984027,0.18611368795968386,0.719381241332713,0.18675732133412265,0.9875683773794182,0.7551914029727774,0.8067597548491982,0.08399164861489437,0.8851124971059191,0.4425602116807572,0.5794141760453156,0.9188568408284996,0.4771883259304697,0.9869439654642649,0.9160410167069761,0.9634390198630549,0.6363927424693832,0.9100941725887428,0.40596050644219545,0.8973248862954746,0.1515018198500925,0.9456217443820931,0.5484693266881169,0.7783315843229067,0.26919526991050485,0.9410937389000479,0.3605640550057627,0.771782080308366,0.17777541144412956,0.962003121464038,0.8434676495453453,0.8823584794153005,0.5359213592015195,0.937457779369544,0.5317630219285627,0.6521745857652081,0.056416091139564806,0.9126021381968787,0.6961196936055745,0.9838071397287214,0.9681134307851011,0.6824167106573249,0.09782057892965967,0.7532970695459972,0.15661525239748753,0.7069126767470275,0.18338279745326877,0.9826933488440429,0.7228136558217723,0.8720637411940807,0.4597643160660783
10,3.6429636002813037,0.5681101090656133,0.8691195374610745,0.5037796541511727,0.7442349474871945,0.01673088545009368,0.9839734822810258,0.9270470979798815,0.9137121995085532,0.5497573142518454,0.9730481437724477,0.6914964677684777,0.7940523132566171,0.06283115034124492,0.9330293973929703,0.5513728512658286,0.8719074384358525,0.08305077640836554,0.9161909993319278,0.15565771554326238,0.9462124739892651,0.6125907184076035,0.9732131159636765,0.7161993046420032,0.8165559399077724,0.300045204494192,0.9559285882550246,0.40323487150760046,0.8063266363702778,0.20325335323328564,0.9737935412938084,0.8811733712397174,0.9208224287849811,0.5714776524383558,0.9772779090655958,0.6311728774683167,0.8519288605850848,0.10892101719743176,0.6863017864851194,0.08885301821104974,0.9610338637466784,0.7187610205503949,0.9589954130042562,0.793569013638747,0.9915864995711405,0.9773800924140092,0.6516334751449678,0.08557224471917857,0.7767580205890551,0.18579288719470746,0.7858039713609724,0.20441148480801483,0.9915375695021851,0.7994414924842097,0.8174383009675572,0.058820134614153946,0.8830524760561141,0.4400886545341905,0.5601103078184393,0.8454331462922047,0.422536396463511,0.9804186886532134,0.9048430431055106,0.9578055554606606,0.6217225284444918,0.8931457525318117,0.42615594588092226,0.9180464805464806,0.1565563142801073,0.9412139907339837,0.5730679145363238,0.7871721914636196,0.25034368024560966,0.9485264048651516,0.3306328182121541,0.7812232210125548,0.19238177408661883,0.9628843013174839,0.8354318070696434,0.8883855917930253,0.46462752393091517,0.9603835817071112,0.5349054585325892,0.6542283285675115,0.06330864834313217,0.9242356008532828,0.7045192012686355,0.988279892546594,0.9705587511529961,0.6391881306235088,0.07004134371698781,0.7523362529429523,0.1577961534802243,0.7632288121286495,0.2062131329572364,0.985559676985448,0.7454375239695253,0.8721945053171185,0.45426736629879655
11,3.6082819045035723,0.5707187399070831,0.9104248171284197,0.455980620226338,0.6528471097993137,0.012507224247147564,0.9823027403620568,0.9105173500094914,0.8316723026849703,0.33097323479328383,0.9727115403507491,0.6802705949624469,0.7236892158260856,0.06041565464686442,0.9161207078710913,0.49729105836368775,0.8463305893012418,0.09478319009218752,0.8751708520493141,0.15267360786829093,0.9223040661253286,0.49163535709005,0.9478654300903048,0.6141215439399209,0.7561941776687755,0.22749611991513727,0.8961164047117948,0.361093034706841,0.7788987390962312,0.22099543514824144,0.9756839027736766,0.9005278151799601,0.9242415665940609,0.5924874002302771,0.9570560754941464,0.5423440857028067,0.8777951300622364,0.13843736787217018,0.6285872082407497,0.07889175431806797,0.9476417743634099,0.6586472102004199,0.9539291560809615,0.7805536147802721,0.9865842120314353,0.9648197891893989,0.6281453134135175,0.11302112070556512,0.7386294047102651,0.18597151139390516,0.6055882764976107,0.14528358179629158,0.9844968693024566,0.7182483498007161,0.7947994538246521,0.06237218167723339,0.8524380383872169,0.40712443736507453,0.5654021018111351,0.89272743804269,0.41076987473283505,0.9789824678306356,0.8882524186179154,0.9553946704655057,0.6233769674179264,0.8735859228406563,0.41000032252233926,0.8737111788582377,0.16441933232239556,0.9157632021160294,0.48190403684486693,0.7288593079305077,0.18717279971280792,0.8875103936960922,0.28610877956584485,0.7469573798336372,0.182897181483697,0.9641718155035577,0.8618328537972727,0.8904334665218003,0.48536795163030155,0.9246638364285422,0.4527731147359394,0.6027161267578048,0.057123869467457275,0.9170400298565803,0.6851438105228703,0.9820436912014776,0.9556075949482468,0.6205980486440859,0.10811905370678541,0.722053624850471,0.14714532764194227,0.593960174897652,0.1388157116053715,0.9745492200031799,0.6699016227369384,0.8445116840146918,0.4314069802112502
12,3.5890712492042636,0.6396114382251372,0.897486344293122,0.4287276539107924,0.6655504692291658,0.016597938015431975,0.9849693522324083,0.9196816899701142,0.885595284081117,0.4583167182604688,0.9746108888876316,0.6732190634093095,0.7886967530155321,0.07972080229642785,0.9240276790293318,0.5147866162033384,0.8411225118458079,0.08329055345907123,0.8831954668853744,0.17954281713996964,0.9147968732861995,0.4574235565249537,0.9387951838667996,0.6216441844373577,0.7752759228697846,0.29897333124896874,0.9086258784204961,0.4792018950154455,0.7817276216016364,0.20697413930506153,0.9775355824175748,0.9045457025043797,0.9268819737892704,0.5985679601762341,0.950457441284209,0.4091510215414578,0.8897096339388177,0.1351144415038221,0.6718766089886865,0.09489607836156487,0.9626963698748257,0.6860572055654199,0.9539457611086204,0.7919012910316674,0.9892354562433493,0.9710146496885186,0.6771812639498157,0.1415748034046603,0.778126126859122,0.2110837361751803,0.7555229144178043,0.2007227359475254,0.9847424747246233,0.7876291635467885,0.8388459096748655,0.08174123468105927,0.8711568054376293,0.42341114753055525,0.6178728478795558,0.8892652280755785,0.3764167430068693,0.9812956901970592,0.8919938358617232,0.9566340189691436,0.6065926035286994,0.8829314112217741,0.3632990426576211,0.8775572599102011,0.17368757865828613,0.9054048150291765,0.45445977544865857,0.7469611450366974,0.23771259301037562,0.8959531668059854,0.38565347208052486,0.7476099004852088,0.15877005004920225,0.9666246356802327,0.8635890702150815,0.8892979866262546,0.4883676647379204,0.9219194954489072,0.3620710121771684,0.6353002467781739,0.07658884434166048,0.9106717002865068,0.6732803031037802,0.9841827921848699,0.9610059394950924,0.6661966526157891,0.12130717203345182,0.7492790996900349,0.18165623009904572,0.7276019259293645,0.19558368887024266,0.9800873215379485,0.7297026869484796,0.8586723417109953,0.4369335950696781
13,3.546663440256213,0.6081588035079873,0.9202699720926442,0.5613183928221505,0.6875419630569536,0.015845756982172284,0.9889475450403883,0.9370906392958165,0.8721829271683963,0.43754725727946003,0.9717345706983554,0.6920173350048509,0.791966572149232,0.07233236567566871,0.9015354773095403,0.5023639368185173,0.8489684564636303,0.08384666577445883,0.8774598421803118,0.14417247065543173,0.9413132732716791,0.5761797555906155,0.960244585854296,0.657404938579304,0.8137704634128949,0.2916243769880373,0.8978514530231042,0.3090054991477265,0.79083960945687,0.2229100090534925,0.975475499262325,0.8948256225906873,0.9499122140193602,0.6392791904556447,0.9758940751059177,0.5882483682923944,0.8616546922400179,0.15209561547518818,0.65633185756939,0.08393077216352811,0.9530187260193421,0.6651378232154316,0.9576065742167438,0.7989919754549385,0.9828885602814863,0.9550446639648259,0.5804128226153399,0.08779922224678913,0.7704346589007969,0.20529429027172122,0.7267969620809274,0.1770443733031641,0.9897459050388342,0.7897663875165524,0.8282736051709256,0.08061759958263336,0.869373069025915,0.4304346408963408,0.5913393456063203,0.8978992084146773,0.47370229028145855,0.9860140371180758,0.9104188702609958,0.9534274388695494,0.6220312311126704,0.8514725629452582,0.39370680612617776,0.87335521526698,0.13831906892180165,0.9315524247101223,0.5376818436152844,0.7803681169769096,0.2399152161667666,0.8791530154509493,0.2419414020945632,0.7493473994707626,0.1684224331955635,0.9640481821909194,0.8479635952852076,0.9195527224363942,0.5179887311825789,0.9498280601221777,0.4981429372460131,0.6136732735320616,0.05508775903838138,0.9176954296145673,0.6980733367172012,0.9770105744297568,0.943309814479196,0.5774717958903144,0.06810713420820542,0.7461392527758901,0.17016299659282053,0.7016261609306768,0.17607468220734424,0.9820254893555072,0.7201394534326998,0.8553505452895552,0.44322050537710156
14,3.5208311125357334,0.5855755136518347,0.8587080575744586,0.40858647213792465,0.7162787104053862,0.017355985088936637,0.9875033806368427,0.9371238473812413,0.8702937616471171,0.4892063553074971,0.9817434996417622,0.7332886711589226,0.6954206434126364,0.056806845206131676,0.9516421738633645,0.5822231356512888,0.8629886234358591,0.0975444955548773,0.9036113682189948,0.23362936011493937,0.9297952748775041,0.5545448120111884,0.9586952961628582,0.6888258198693776,0.7588006523588318,0.22580872845751754,0.9535429586278367,0.46725202580774805,0.8110577216923649,0.22071445621932945,0.9776895024814395,0.9015345349571521,0.94017332719083,0.6177643787221847,0.9467008348436392,0.4797820056523332,0.8604045287887002,0.17411840804219073,0.6788259542294941,0.07196831529642422,0.9692519530709767,0.7621143611224557,0.9631367584352108,0.8019193317583011,0.9899282450347563,0.9754965022080129,0.6579808296899876,0.13791204357533926,0.7354303765352365,0.18936199264604975,0.7365432085711833,0.18226359840340578,0.9865234398174468,0.798486074357301,0.8363757346910201,0.11236195817827403,0.8710758079976201,0.4414072042550498,0.5635387940672282,0.8352325727701628,0.3396922099863582,0.9849515149522091,0.9135853145839207,0.9643629371768111,0.6364123423538312,0.9082098388416177,0.42075658062386817,0.8892050583227055,0.1967074608867899,0.9187135293903835,0.4870010841721556,0.724846091134696,0.18172024647130686,0.9456049434792738,0.39588687679218415,0.7693692156588342,0.16942639759890424,0.9631088716323426,0.8448360053362125,0.8975704137739853,0.47115704940050895,0.8969743822685,0.42392141662697,0.6406561165733088,0.06051284713690348,0.9231558467750319,0.6839570255197813,0.9856978928769152,0.9656140085903541,0.6410929043503713,0.10146684155427341,0.7032548434410111,0.1281805187439269,0.7097860775009814,0.1682644851706782,0.9779076374814419,0.7187227149780386,0.8568263520210833,0.437253759290893
15,3.495643331487384,0.6178231596730516,0.8960630939445543,0.44984940457762074,0.7843064130233002,0.030309093120905923,0.9899755246305858,0.9483933182561801,0.844880203346764,0.4297939649495419,0.9631634858163015,0.6418311764374217,0.806275508552501,0.09552968037147067,0.9455386838734221,0.49311163321437956,0.8884568552174227,0.09819582026228824,0.9266779524336393,0.2600999115235244,0.9518238350645198,0.6305804465821934,0.9761122753628926,0.7630662163436166,0.8609870667919686,0.3750170618266801,0.9649628952468109,0.5824031774354749,0.8398950188819043,0.2524424033441079,0.9791680000374133,0.9092702243982925,0.9332588839380037,0.6301518081411961,0.9576710684912149,0.5574532276412791,0.8902671689151491,0.18611369276055525,0.6980356233637125,0.09436094689487821,0.9364993612255743,0.5627914774093457,0.958837464835991,0.8095336999713603,0.9899354160614001,0.9779143926717558,0.626598460418375,0.13212593196340722,0.776484625609557,0.23414318891572053,0.6754678248003314,0.16789396359651526,0.9929070203439616,0.8503120400889825,0.8584174610659336,0.11997222068431085,0.8856543404182667,0.4549133379030743,0.585898486994112,0.8681799354228998,0.36200090085544745,0.9859980372792924,0.9133379083606845,0.9349862155431281,0.5679237242263346,0.8897946989056928,0.36158481647024776,0.9207285824932885,0.22467252250723668,0.9445950801200053,0.5732876111587686,0.8187822585818558,0.27819678054942776,0.9489955244993082,0.461040054346995,0.8058386420029996,0.20270587428074516,0.9631701516704695,0.8501784676561163,0.8901434736882083,0.48326584788380406,0.9031840906840907,0.4646993173609703,0.6639461005131418,0.06989751194322835,0.9142983079885065,0.6615807220256259,0.984209403163352,0.9659367690861178,0.6058131041637811,0.09875667285159603,0.7416338090207688,0.17046794025094283,0.6541254809913566,0.14332088319753758,0.9849568927057399,0.7654045864968708,0.864388409970415,0.45359257428993144
16,3.4649401064088,0.6324563364885345,0.9019832814734727,0.525601615353934,0.7654342119864225,0.025267149977322483,0.9905390625087593,0.9510839889478581,0.8691297946566293,0.40512404028176363,0.9784780381938639,0.6909538477951187,0.8326299498074801,0.1021457897380203,0.9565193275273829,0.5998404172889936,0.8846635060228127,0.11403976429397476,0.923376929493936,0.24110305212273753,0.9519447208210395,0.6535947565991407,0.9763762115916887,0.7641279809175197,0.8268046567528838,0.32984980560438776,0.9638270487107129,0.48674429850423995,0.813900743344684,0.2722780258232519,0.9801766467062771,0.9092125830590415,0.9436095597280089,0.6580893756690783,0.961073976559648,0.6346221749501725,0.904661012657715,0.13542571525113817,0.6734751216110364,0.08607981004516123,0.9617921537506806,0.6651273540147155,0.9662383084859134,0.8137569234595811,0.9900336110823204,0.9768140645890926,0.6322363369944514,0.13448285784296074,0.7579038169622117,0.22176241251204137,0.7197550198352812,0.176873492612357,0.9876175876252726,0.793182627913822,0.8076042492969057,0.07223952207386504,0.8859920327476849,0.46071938693486253,0.5979727211746292,0.8690196765144654,0.40696386932474604,0.9864367871836529,0.9180524481264206,0.9597591791045625,0.6264194207049686,0.9148599097301385,0.43142135217638966,0.9058392587804354,0.214976722255463,0.9418728033753574,0.5946096507956189,0.7840634353083404,0.2469765826127839,0.9533917036680408,0.37887387549431983,0.7659641905229304,0.19829950057269627,0.9635682871808846,0.8434773108973023,0.895698061023437,0.49192637712711135,0.9146580929669165,0.5335666536058082,0.6422002428610599,0.06883090322360909,0.9220644494621241,0.6858400253314355,0.9848720580572965,0.9647261318822666,0.6151038985305378,0.09369196468043134,0.7220285027255411,0.154140904076846,0.6988891447960291,0.1576402647650996,0.9739816568416518,0.6749368274309328,0.8639090178228106,0.457124778162329
17,3.4351796536045085,0.6350649673300042,0.9322566361451945,0.5391719936290198,0.7613465928123778,0.02362230030135033,0.9833508481155159,0.9312214305894356,0.8811828244095263,0.42654191723364754,0.9747611983403274,0.6959875351995555,0.8172463842925497,0.09336399262539766,0.9555723512989883,0.6375023290196147,0.8878412768043422,0.09890944845450376,0.9179869626866792,0.19605499259763556,0.9589157831831792,0.6628906218753983,0.9783422474328474,0.75057173097451,0.8186345616899102,0.30777043487008304,0.9537495043813176,0.4442533446998355,0.8552534575674839,0.294443592763499,0.9803436542505753,0.9116844355589858,0.9565354096354061,0.6804556697157355,0.9645304844995325,0.6216198262063947,0.8837016586398284,0.17929779001776372,0.7085793240666028,0.12768902009776756,0.9597620293934229,0.6431028093430045,0.9644785591874757,0.8224682403979784,0.9849824555761839,0.9655188277176613,0.6562499586331663,0.14418148142596093,0.7845875761810928,0.23278977597276315,0.6777071518845795,0.15712469239433757,0.9883051936459181,0.7856229644401408,0.8292442950474401,0.10016346659790096,0.889461051103758,0.46200091350814365,0.589401505552657,0.8956138758413865,0.41964534641889556,0.9761654443122012,0.8835359893111675,0.9507036848512179,0.6097079819332303,0.9075604867604938,0.43958641466067366,0.9063266158854394,0.15118358555402858,0.9449290299761499,0.5742443955083927,0.7796216938138895,0.22276540295790423,0.941714692076056,0.34105809614992605,0.8138382304732656,0.2197574902151159,0.9648335449075179,0.852556639142966,0.9050807667311135,0.5151067660659951,0.8966711944653122,0.4772866074598726,0.6658657800932273,0.07465287471919616,0.9245931105317216,0.6783189795897869,0.9791177933524945,0.9524680262745574,0.6338769119603195,0.1121213889187436,0.72779717066255,0.15967908186734078,0.6524874273218763,0.13207209069471498,0.9779391687681934,0.6777510591131543,0.8655124538307593,0.4470262219239823
18,3.401299089897476,0.6875854016049291,0.9026526603635691,0.4982275738651056,0.7646498645048281,0.02745646918751852,0.9864999842433757,0.950967156094401,0.830215268169016,0.37467837374118873,0.9750379775840315,0.698878127455732,0.8377493331140272,0.13520018081226617,0.9462199496775615,0.6410965881070272,0.9010898611751912,0.1694184338578797,0.9294170566417277,0.266465672331136,0.9489532277121522,0.6426711390106693,0.9709174803931802,0.721938301900642,0.8208799235709994,0.3625756098000932,0.9542552826407921,0.5861580138444595,0.8443732572526317,0.3168065333654618,0.9836285999091376,0.9236609133486513,0.9329830822478552,0.6645130902985635,0.9551902225629247,0.5263204170701101,0.9217462609878109,0.23121901556022828,0.7109284504285084,0.14902515828724222,0.9452785686394556,0.5952491711067436,0.9632776435060887,0.8368992230056448,0.989231043303876,0.9749098937441585,0.6390747710115937,0.1862837599072415,0.802143132592533,0.28009517432206965,0.6578403387788467,0.17408364200754017,0.9912890320409797,0.827032391616334,0.8651452285336022,0.14356108245468535,0.8878025000587516,0.47797744837417755,0.6345680852649623,0.8633169068995614,0.3850321844458411,0.9796226828330367,0.9170617170928186,0.9485091036629874,0.5975529114343338,0.8940078804222001,0.4465741554565239,0.9147510875452052,0.22022981082968954,0.935152390179253,0.5515653077320952,0.7702747589086849,0.25285433742133095,0.9343377904299595,0.46307690186207234,0.7893576429826192,0.2016333511306933,0.965634267220236,0.8462111365739846,0.879132442247235,0.4937427424550477,0.8695702813349871,0.4054716289118575,0.6644249676838105,0.09042445555608859,0.9153218730637924,0.6870733766804927,0.9827507829154325,0.9615620239638174,0.6201100136675927,0.13078038229670208,0.7561164000162457,0.17979845406498127,0.6321280305406327,0.14845393187522815,0.9799611963909423,0.7249712935371764,0.8576042367865483,0.4581089528063566
19,3.3784619042042405,0.6796104444610072,0.9219410103808288,0.5752464183001199,0.7844335596598775,0.03414686099386826,0.9904854709013317,0.9492791928285954,0.9078305925961219,0.5820508079759117,0.9722713809876256,0.7085521784059532,0.8503565182471725,0.12984452494512835,0.9396130737245862,0.6192565917646122,0.9010101924337938,0.11753067296605835,0.9286355223376075,0.2536083086833188,0.9545842517515162,0.6805660138798975,0.979208672710978,0.7696626941763117,0.8115946711931515,0.3975498704084081,0.9647533151921548,0.5943738337581828,0.8463751654328943,0.3119033988008264,0.9801027308755822,0.9200004970727491,0.9642166576533279,0.732212918948888,0.9753672692821833,0.5292968401443103,0.9128665501295344,0.25516531359562744,0.719331186870915,0.14988165256189406,0.9541642764818482,0.6677929847405331,0.9747791445433304,0.8541637757108848,0.989150425305583,0.9678764553029221,0.6920188945311208,0.21180195900847562,0.8072946570809721,0.29952413950545603,0.6564515241014193,0.1883121192599598,0.9925186537695356,0.8710292279658229,0.896656322854402,0.19877197590778967,0.8988152478159036,0.5025704158375002,0.6285309681747038,0.8783358890892744,0.4250237583779562,0.9865829448805001,0.9158856608266973,0.9401360567457294,0.6113150648549968,0.8711963292314272,0.3978000693668194,0.9115379519791283,0.1688084297030435,0.9359253154611618,0.5639935292719362,0.7618198473750724,0.26702887287687294,0.940525973473852,0.4389157419434178,0.7957369928806632,0.20668511152605545,0.9601907770921108,0.8443385828908779,0.9166976950716481,0.5485735031572018,0.91798205768794,0.43158292187123193,0.6530333150534686,0.08509786809720424,0.9349656732492527,0.6794933560055543,0.9837765355061692,0.9529376738575795,0.6682825611448373,0.15225485935088653,0.7676758224250974,0.20152276076954595,0.6382128179323854,0.1581567198921363,0.981345889494245,0.7522792684726632,0.865471602409156,0.4632470396375093
20,3.3427180823994047,0.628580656381208,0.9327989795598814,0.5715138816340529,0.7087073667267829,0.021806371657590855,0.9892584371952521,0.9469678678580893,0.7892824772530411,0.2899444127808871,0.9787162740794728,0.6979860054365935,0.9020850411942617,0.1596406060504013,0.9257046113274828,0.4589756730091016,0.8422772131063457,0.10383777476956416,0.879624986541108,0.1624770089165387,0.9195103638946213,0.6323322239167598,0.9701992760143539,0.7256144095153796,0.7993781866640179,0.28219170401691407,0.9431403659968262,0.3805917669863882,0.8042343741656683,0.2713517141238716,0.9831431581781994,0.9232293525978504,0.9430644907822395,0.7152964254288586,0.93990806729348,0.5524563355475234,0.870000668434304,0.1969575026770124,0.6601902628329885,0.11613447565286567,0.9480270901542912,0.5750604598350804,0.9640167332871827,0.8461700801265691,0.9785173230864309,0.9604499072063516,0.6508088502961865,0.1181355019163357,0.7860633433840943,0.21205420432775932,0.6779779573238556,0.15924861700435824,0.9851073164010308,0.7975000184199735,0.8136145986242361,0.13554842535075953,0.8735317708813939,0.44494343432457156,0.5770291421331147,0.8931401143064267,0.4296235817730768,0.9827280356261601,0.9108915172941849,0.9566565660361458,0.6085220367325875,0.8732654361683597,0.32549294405022816,0.8611572747602159,0.1448134471344037,0.9038378195503437,0.5585127050284909,0.7520672985298026,0.2101761844438732,0.9241594219062121,0.2699665831916571,0.7506767235842962,0.1789871471942905,0.9612920231864099,0.8408083526888599,0.8806268637008836,0.4961928662988512,0.8723604826546002,0.39825665593847503,0.5970147675192918,0.0851174145189572,0.9103908592291348,0.647079955099383,0.9691858925395658,0.9430551245864139,0.6239600673710398,0.07677793025505153,0.7269555794774011,0.1393743636250104,0.6463484332432501,0.1402748870990294,0.9701925354039327,0.6738732843882321,0.8450534839364985,0.42514720954426616
21,3.309386686882953,0.6535241360463094,0.9145033003696065,0.5270058588692502,0.7369033260357111,0.030950899519830363,0.9825986869829553,0.9437183733925296,0.8798168010567968,0.4745853340811434,0.9773396686312743,0.7200480237446398,0.8800811724244728,0.1861639822450842,0.9580924885462119,0.6847661444930517,0.8900477075522364,0.1542250806068869,0.9202782492161892,0.24471914146941842,0.9403221135061436,0.6387567610658549,0.9770351860983238,0.7655985569309228,0.8296148741973386,0.37353021232345934,0.9104540981969658,0.31501854071023455,0.8485148571620473,0.3235253341152692,0.9866784819321228,0.9413465910549221,0.9588223403374649,0.7285103483431122,0.975525219860139,0.6353329646945776,0.8885753774459462,0.2137149042404366,0.740727709918786,0.1447802800036792,0.9621748132776865,0.653913853324766,0.965090517441291,0.8612868773449266,0.9909933933883149,0.9771584768519601,0.6788793724743251,0.12303606813855472,0.8041044391689852,0.34063701373667454,0.7232489157126593,0.18267790946238455,0.9910447126008475,0.8373453501793843,0.8837962618271351,0.19116397598987578,0.8961208920504435,0.48938951321973445,0.5913393456063203,0.8844824846784753,0.4054548214766177,0.977583672236493,0.9119788510652022,0.9476009579087252,0.619465240749886,0.9058144021661239,0.45296226299532794,0.8918376602200132,0.15978327382684399,0.9134246793661979,0.5398224241018139,0.7865519644993588,0.26360663020672814,0.8666165339917572,0.20101967608386254,0.7886826767069698,0.1871742311415421,0.9652353399780623,0.8505939017434803,0.8923434438015542,0.5112938853722105,0.9033529732059143,0.45531740131544857,0.6971645971248384,0.09562070136230713,0.9034043986477214,0.6787981599476184,0.985596336693728,0.9654385548419674,0.6661247866888624,0.08540328659387134,0.7553184585231624,0.22861983926112991,0.6933582277418814,0.15557995160942997,0.9769593508043497,0.6941355255161661,0.8632343655254835,0.4453720325900765
22,3.2786864117152565,0.659809694169089,0.8949346147967628,0.49668909442996934,0.7375758757406085,0.03835768694131503,0.9881687670211203,0.9514937550263147,0.8328558086293184,0.4571949484437671,0.9697507739532022,0.7195659920293718,0.8872887902789067,0.2173389511261494,0.9317100937693968,0.6190156354614746,0.9010332852578173,0.17600307094848947,0.9133604784943676,0.28099793334246026,0.9051219337973857,0.5371057858893418,0.9671356766737331,0.733106229234499,0.8091843466564115,0.3170722773042045,0.9554514468187826,0.5158038493446261,0.8201297786464871,0.3019768062843769,0.9867420164599703,0.9412972342979042,0.9518207847778992,0.6741769299341496,0.9529861890111527,0.4893048879832304,0.864384582438993,0.20797990950634032,0.6635563564334137,0.1137161445832224,0.9529785126830027,0.6811766223170013,0.9576248511989115,0.8288539315347765,0.9766280654039197,0.9588887491609711,0.608276685284806,0.18135980558324358,0.7959605666106436,0.27291721190100005,0.616551278277736,0.12087869169596407,0.9903208590332557,0.8254066686194163,0.8761065749695063,0.1426192679683569,0.8780607034487967,0.47408511373673834,0.5958858165014533,0.8644724310519908,0.3861662538039152,0.9805552685918956,0.9083310577185332,0.9344167312902046,0.6013705861677529,0.8745489263090122,0.4236661143513061,0.8865400630106512,0.20432464597792735,0.8840792071041322,0.4683820054974379,0.7531668279147675,0.2122258457560368,0.931641594807992,0.3661105190825937,0.7622132950942971,0.17958678814718934,0.9640824905671317,0.842601957382879,0.8944273457917852,0.4741077291319269,0.8737126347420465,0.38937798663194795,0.6171824199929492,0.07216253874529197,0.9033615681773765,0.6590424774004754,0.967312262421944,0.9441985796297118,0.5850868075064615,0.10589522986847302,0.7491323446102365,0.17096225430811154,0.5996055558432031,0.10985910975354113,0.9771341146383664,0.693105237397158,0.8422458889192865,0.43218299561853735
23,3.2499995648628444,0.6313135077389381,0.8270079110571542,0.43346275608393686,0.7040935824135253,0.028144702617889122,0.9844255280264307,0.9495266527634884,0.6375934683219813,0.2298797829429747,0.9555978843136055,0.6465445693178727,0.802817281554927,0.0989350970600779,0.9184322655703583,0.5635292872060919,0.8516864127829381,0.1671041825299729,0.8755187464395839,0.25185951542887064,0.9149937956761387,0.51792280896607,0.913968576899405,0.6513150850492885,0.8500693733467125,0.4534420114620844,0.9447465292150856,0.5636616229726995,0.8413839880655459,0.3448746866786774,0.9831454547506548,0.926827543173611,0.9638029652333285,0.7497294292940474,0.9731233682144025,0.6287239033999412,0.8565326174559481,0.21986457159184583,0.6663987850483954,0.13901358847562223,0.8857067288259212,0.491931044289495,0.9668056278446846,0.8427300628415905,0.9881625674516017,0.972920626474291,0.7091451222068195,0.2020668369050532,0.7563715052021474,0.2814866431770145,0.6563498403355291,0.16084050629582158,0.9926058776443306,0.7888878888193339,0.8820089975234291,0.1960743628198452,0.8630553630155772,0.4630111025421299,0.5776999329209213,0.7762299696646208,0.2998455945376347,0.9746037161037324,0.9057543498361371,0.9173328869469562,0.5412164194444499,0.8594036985506991,0.35222832282107464,0.8399048288754171,0.17982972024849125,0.8960903925894237,0.4368897826864187,0.7877486542033386,0.28666994500556997,0.9150495014154566,0.37376641271729205,0.7682322369644442,0.1839948154559165,0.9562993979038321,0.8285840949686307,0.9012018020019799,0.49649830241353154,0.9045031214148862,0.49201646621127965,0.6091713345606957,0.08175095700342677,0.9112096281234017,0.6345742379596818,0.9813758930091714,0.959427700096956,0.6742263632966338,0.11472438923762943,0.6892215197796956,0.1479806744102559,0.6215806888107678,0.14084639345679176,0.9810704938939999,0.6932138870015284,0.8402345330583766,0.4289374981848788
24,3.20864040638769,0.6609773670219373,0.8795833128543722,0.4862177047728423,0.6977107901447874,0.046821593294367705,0.9856527257397664,0.940915025177018,0.7033263816557744,0.30986544265013016,0.9591161567585056,0.6591233138204016,0.8961122013230106,0.19514875457765574,0.9090652737504678,0.45534101906511043,0.8337711560598033,0.16374322531500518,0.8848637704515255,0.2686774350185644,0.9040027159286207,0.5830452423098343,0.9648531783023859,0.7730100567207097,0.8521458462794878,0.4506494087064159,0.9504619408476074,0.6066853949264178,0.8368617038143986,0.3986546632023258,0.9903289623905895,0.9560898079392682,0.9579030688051274,0.747118070752753,0.9737272499695154,0.6031395454398994,0.8707716185045121,0.23129615069555828,0.7029319479941222,0.17534026661299207,0.8927682297977445,0.5173567122789141,0.9624102083129349,0.8388833034557699,0.9819635779179413,0.9628977615168618,0.6676703302360301,0.23746588377442274,0.826062274598086,0.3198445334647927,0.6899995429175785,0.20788266993633076,0.9925308963185043,0.8709458276980282,0.8739548567354426,0.20587397176715796,0.8755759229040239,0.48933454758850176,0.5969292688380413,0.8284281595832581,0.3268350937072719,0.9771019054645375,0.8956994494183734,0.9249154200302222,0.5505901417562278,0.8500219390601262,0.30987713522845284,0.8398851744439979,0.16133885753573518,0.8902442604662086,0.5014053009574212,0.7763636904313264,0.2700306897676363,0.9207953427407557,0.3817671034202585,0.7538031354220385,0.19290265200275886,0.9627513431641318,0.8521500454115335,0.8767205679458177,0.5059394805438794,0.8970151470151468,0.4713415980311013,0.6348215754631987,0.08242532756955917,0.8982875088883622,0.6305628363955168,0.9731401944933484,0.9464294721956102,0.6225818748905677,0.1298442840385362,0.7475310184970019,0.1713649895399516,0.6380317487523535,0.14151784352319394,0.9774044786502999,0.7369194449809731,0.8415707623896157,0.4346811445275785
25,3.1729757821396127,0.6710392288390351,0.9125842404389557,0.5957197782662568,0.7695304389670217,0.10220679368659591,0.9762997437884607,0.9334336699135557,0.8982861220126568,0.5191419758523103,0.9830214932423432,0.7888411611003993,0.853226118308065,0.1306986502297551,0.953354460262256,0.6883153115437071,0.9012464959867734,0.20698519572575005,0.9276314170959401,0.24541996085741757,0.9561000467227158,0.7236093165263422,0.9745520305070958,0.7391185954836768,0.8505704425717089,0.46158336400328626,0.9451963813292567,0.5833029167479418,0.8706159137210143,0.36532945570061826,0.9907187215560553,0.9590485134723432,0.9391940116904474,0.7115835274076431,0.9763706619147271,0.5798579707367981,0.8815882696756563,0.30023607962256255,0.7685883388954572,0.2031573126123402,0.9688764095065001,0.753414884411296,0.9651639002118,0.8610239410068457,0.9872740558975085,0.9686315662961774,0.6771845273333653,0.24526711320934164,0.8447679073410675,0.3490912140153914,0.672510971332172,0.1724569074212029,0.9899631159776787,0.8458803371289243,0.8722514673904884,0.20732673812628907,0.900246951988044,0.5274326759668434,0.5931281210404711,0.8463400850394753,0.40009195693112304,0.9680602803061029,0.8957253250596237,0.9453453402158825,0.6525592624873161,0.8818461443479911,0.4269378541243505,0.8933812610283199,0.16082049807894516,0.9264772082281331,0.5566383452847952,0.7716428117354702,0.2614616761992879,0.9011007839763898,0.33772772185573235,0.7996027523926558,0.1818049109481334,0.9585606893710468,0.8272055044777622,0.8564517726300008,0.44594772434004115,0.8999199991847051,0.4178840718715951,0.6959845665713502,0.09980232721479648,0.8921071343920359,0.6352563898368446,0.9799576204993343,0.9494304733828516,0.6381411747335081,0.1273379512066548,0.7726470722466257,0.17446633521593943,0.6238391685120744,0.12074654082332341,0.9766601390194307,0.6912333204204375,0.8541087370752911,0.44016200998734495
26,3.1431069294475376,0.6567041812625773,0.8696100078319217,0.4719319572344788,0.7083212599339792,0.05722548184448501,0.9648125055926475,0.9136085575616051,0.7194763612390991,0.27920332476666937,0.9683291637499298,0.6958276067899849,0.8305968771626221,0.1243976508097094,0.9150179300275305,0.594697390834416,0.8538820929053439,0.22539580962446756,0.8809302993928562,0.2694110111536291,0.8921734376872373,0.6051897402404844,0.9283356788332727,0.6705610646403249,0.7955736992722988,0.34099231077679854,0.912275910072232,0.5058439068425541,0.8185678807181782,0.3863731829804463,0.9929314084713039,0.9682306530103078,0.9257704118538769,0.6558123759008717,0.9575203354721368,0.5055152413870913,0.8252160201871661,0.18517439300685376,0.6872030505193018,0.1736821894075465,0.916677119707807,0.5404236198331733,0.9528501213025901,0.8205846095360435,0.9805947214610257,0.9627409520049555,0.5892162823534602,0.17588363345233024,0.7740893413630295,0.2642127955758384,0.6637470929287184,0.19503031027553505,0.985094113652143,0.8170143621295867,0.8591311258976152,0.2302370142772876,0.8580720092440489,0.46797041281101753,0.570172169635537,0.8103579599220324,0.3177815276826045,0.9556098036825316,0.8679831501973235,0.9231947827453446,0.5610060438265343,0.8371625629232089,0.3696409815872748,0.8354723906194494,0.17794881252726671,0.8697382364371972,0.4970117674394134,0.7239946057787855,0.1877124042001781,0.8659055849345791,0.3081745119723409,0.738922006169112,0.16138939765011667,0.962028896731295,0.8378273483144724,0.8420793799477587,0.4187167003240983,0.8893302643302644,0.3803494823130863,0.6176824395785185,0.07453978228647004,0.8850431215512116,0.5953641940090072,0.9688935870736454,0.9437524524861506,0.5488191774879331,0.07238523907868458,0.6970510393651136,0.13204277461931693,0.6265015946585634,0.1452399040863985,0.9720109514196795,0.6784790158427407,0.8194630729134855,0.40670239423386734
27,3.0951153562337326,0.6772005664455542,0.9064013169766747,0.5688672615922923,0.7890065865276419,0.088537823811817,0.9841170244136073,0.9535083357530327,0.852532957478319,0.47995267872152914,0.9763033634239411,0.7597146859718742,0.9023472461480717,0.17520335970982878,0.9518151099182145,0.6768792293916506,0.8947211666122329,0.22914232494498898,0.9115600221860052,0.2994986786474255,0.914866615819445,0.6408275995145954,0.9603878803039192,0.7186660079939704,0.845741298910995,0.42872860392583517,0.959958770342178,0.6484745401438248,0.8379806563988766,0.3706260876673854,0.9931546273604599,0.9680810527367621,0.9599639444873285,0.7695644873215995,0.9787595599416365,0.5676896120304232,0.8915097365221025,0.28974422518983584,0.7491335102787986,0.21753547960620706,0.9547443577967668,0.6955741486926903,0.974670702260975,0.8893185593840033,0.9913787284160461,0.9809843848568074,0.6386474791970789,0.23568078301352796,0.8018579544880106,0.34583105143252924,0.667496405097385,0.1798057695398696,0.9946172735713134,0.9041716116528308,0.9033716048259277,0.2474029993747751,0.8958165148038502,0.5307411623193301,0.5900722963404635,0.8424136908105753,0.3657913001660048,0.9763024671529954,0.9136401455991817,0.9290811614700232,0.6171616603928445,0.8747491340134809,0.40886531792447944,0.8694687334393216,0.14185586275842516,0.8744261165214132,0.4567502632997702,0.7567508654188376,0.22152632885515777,0.9203948702715815,0.38974110806867956,0.7562085714486549,0.16172523256666366,0.9600624461710374,0.830023565586305,0.8801096151614075,0.46150767157032846,0.9031626163979104,0.4091900849199961,0.6659565592071761,0.09577894448660243,0.9075414894192106,0.6601032302170781,0.9821193711630913,0.9614834493523893,0.5877272269944102,0.09978621644331606,0.7230890750996615,0.14081160890540587,0.6127959323064117,0.11846200500307316,0.9835121559819212,0.7328380335513731,0.8424143209710063,0.430896948929846
28,3.0630127068102095,0.7078830339618891,0.9315676711586631,0.6194097856886889,0.7385393796779021,0.11146526308829977,0.9804563526355918,0.9355453415112325,0.816332587616873,0.4395145470892623,0.9796875667034762,0.7569282391454032,0.8916019174120013,0.29612836799057246,0.9426570111546769,0.678162338134911,0.8789777464454769,0.27148070975504546,0.9130749862375839,0.35332847114141674,0.9256047898395072,0.6500261829960905,0.9539271902230444,0.7455640103339487,0.8246148678303773,0.4071321865593202,0.946058151945782,0.5805507219579067,0.8903899592320614,0.5321680253050302,0.9939300854308251,0.9712814749047681,0.9389280015368666,0.7323854137820651,0.9522012225025251,0.5802339759751621,0.8812902312490111,0.28042306120622085,0.7457599642171283,0.25289651895519827,0.9503688991023652,0.6627874938822748,0.9611701792026037,0.8873577162290162,0.9780541975446092,0.9623975111524603,0.6932243516438261,0.24315779274324362,0.8500618162718337,0.42729778276647057,0.7238466375206173,0.25155734192181356,0.9819576892020786,0.8434688366236291,0.8854294106815181,0.25747381789187546,0.8944338097858824,0.5455601084715307,0.6011030781843929,0.8690080432073273,0.40630828760839244,0.9675116353152872,0.8816466140551339,0.9383154380223262,0.6112006496514966,0.8610847376904233,0.3958450780402845,0.8371885136591019,0.1608346818124235,0.8928185228057518,0.5064832045622294,0.7288019842774218,0.19328000814310864,0.9144124446819797,0.36285924997354513,0.7754245817445666,0.19362039217544671,0.9563033741566649,0.8105940543448799,0.8335565367117794,0.4673096264825355,0.8388365741306917,0.4074342659133222,0.6426873359708567,0.09226057118076672,0.88546134238179,0.6536279344258694,0.9679876318050071,0.943676946554391,0.6502205303966738,0.1124797047944294,0.7442890082748093,0.17333219177795245,0.6544778988476442,0.16174071147878116,0.9518520605695892,0.6978130346518244,0.8373809576131417,0.43328143198035857
29,3.027812797292704,0.7003304265732528,0.8772142490999835,0.5266986536058353,0.7620260391333702,0.12903309419510364,0.9631760978472778,0.9156723425268031,0.8211611300871076,0.34749583277860163,0.9803040161214749,0.772959890082347,0.8333768008545939,0.18587354980781282,0.9381677035514762,0.5524859758204875,0.8685649848884642,0.2298094124930777,0.9152885746226478,0.31274013185556826,0.9180803345768003,0.6461914680522232,0.9654338694990229,0.713094450402401,0.850430677164512,0.5334726485756927,0.9213327949791525,0.5946731796031077,0.8738735536676576,0.4514247913543909,0.9945272757925508,0.9754401156214473,0.9341588556234697,0.7112858475764495,0.9646056420797359,0.677842641040769,0.8669186686499135,0.2796217398167805,0.7790325889795077,0.3148162739327492,0.9521846048421267,0.6223497398642615,0.9627763606245551,0.858545965800681,0.9820235476300871,0.9636890022530274,0.6563546810709046,0.2468829850788537,0.8457130848774964,0.3637919798672352,0.7113012262878485,0.2557496879749927,0.9913834917080221,0.8484419019056637,0.8830058839624031,0.2364158020311663,0.8893487680823022,0.5283888557006493,0.5938734441380339,0.807176250419794,0.3235284799473013,0.9499602550717551,0.8731954740127883,0.9461402951388298,0.6331431564267087,0.872322166829464,0.331464263924745,0.865943310796252,0.15045322260977573,0.8882604829848092,0.5269278264920831,0.7600321536131763,0.2609678627974237,0.874464395678578,0.3392370632682701,0.7744964032684664,0.1725475220155957,0.9567320705129676,0.8230094327367091,0.8364606356912674,0.42460337451230484,0.898472850678733,0.471937550355622,0.6854079674096125,0.1136268660799491,0.8848256425610126,0.6077605526189296,0.9696846008049741,0.9399634984925,0.6062090200884865,0.08961465078012097,0.7512139220117128,0.19120555007294882,0.6400688390207206,0.13878106657561112,0.9699359244000502,0.6752057234384827,0.8388319572095085,0.4256406914293616
