epoch,train_loss,train_accuracy,train_1st degree av block_rocauc,train_1st degree av block_prauc,train_anterior myocardial infarction_rocauc,train_anterior myocardial infarction_prauc,train_complete right bundle branch block_rocauc,train_complete right bundle branch block_prauc,train_incomplete right bundle branch block_rocauc,train_incomplete right bundle branch block_prauc,train_left anterior fascicular block_rocauc,train_left anterior fascicular block_prauc,train_left atrial enlargement_rocauc,train_left atrial enlargement_prauc,train_left axis deviation_rocauc,train_left axis deviation_prauc,train_left bundle branch block_rocauc,train_left bundle branch block_prauc,train_left ventricular hypertrophy_rocauc,train_left ventricular hypertrophy_prauc,train_myocardial infarction_rocauc,train_myocardial infarction_prauc,train_nonspecific intraventricular conduction disorder_rocauc,train_nonspecific intraventricular conduction disorder_prauc,train_nonspecific st t abnormality_rocauc,train_nonspecific st t abnormality_prauc,train_normal ecg_rocauc,train_normal ecg_prauc,train_premature atrial contraction_rocauc,train_premature atrial contraction_prauc,train_qwave abnormal_rocauc,train_qwave abnormal_prauc,train_right axis deviation_rocauc,train_right axis deviation_prauc,train_s t changes_rocauc,train_s t changes_prauc,train_sinus arrhythmia_rocauc,train_sinus arrhythmia_prauc,train_sinus bradycardia_rocauc,train_sinus bradycardia_prauc,train_sinus tachycardia_rocauc,train_sinus tachycardia_prauc,train_st depression_rocauc,train_st depression_prauc,train_t wave abnormal_rocauc,train_t wave abnormal_prauc,train_mean_rocaucs,train_mean_praucs,valid_accuracy,valid_incomplete right bundle branch block_rocauc,valid_incomplete right bundle branch block_prauc,valid_left anterior fascicular block_rocauc,valid_left anterior fascicular block_prauc,valid_left axis deviation_rocauc,valid_left axis deviation_prauc,valid_left ventricular hypertrophy_rocauc,valid_left ventricular hypertrophy_prauc,valid_myocardial infarction_rocauc,valid_myocardial infarction_prauc,valid_normal ecg_rocauc,valid_normal ecg_prauc,valid_t wave abnormal_rocauc,valid_t wave abnormal_prauc,valid_mean_rocaucs,valid_mean_praucs
0,5.173359385210816,0.44683611938019996,0.322182795473156,0.02756140967413069,0.6175745243236784,0.024567685281484813,0.782273200237278,0.21266620280119788,0.6633764213357833,0.11332166939085044,0.9060978780271968,0.30338164825252684,0.36292935599340603,0.01474353405114982,0.4920871991404373,0.32776200542390216,0.8026033330966336,0.06361002618441683,0.6546643054061444,0.21100421177768555,0.6195032324374717,0.3938293277757174,0.4465231866237156,0.0333528385303504,0.6132289304879075,0.02693258336469169,0.9140560752910792,0.7656677618017954,0.5883590939291055,0.026762015971950853,0.48898627527248595,0.02436933413190212,0.35711290114265437,0.012821168573124398,0.7786398603697972,0.12694214628215936,0.5720285092102266,0.04125319925697955,0.7910926228561053,0.18051476975356448,0.6980179704774825,0.28920233011082325,0.67430754965887,0.09289044170427481,0.8035397021094294,0.32722825692927837,0.6340538601318202,0.16547202577381623,0.5018315018315018,0.6574149998982645,0.12517306028812134,0.9029890960155393,0.3197627262623183,0.5159335435563114,0.3419799055035281,0.6529311925255687,0.19491111170766598,0.6425584129697541,0.41872113578414183,0.9056108069543394,0.739822128861311,0.7840530383408348,0.2945729233808943,0.7230701557515161,0.34784899882685444
1,4.750950936551913,0.5174414166857492,0.47413094705491876,0.037642072495191026,0.5302665361088525,0.019028492189378424,0.9046297625556132,0.6856699259390049,0.8237215673645676,0.4034914765741334,0.8974326576476671,0.2739206715918916,0.33166878628501295,0.014868527784568524,0.5375443310593557,0.3273397624167065,0.9213783572673196,0.16278196184512864,0.602957774309979,0.23141204889861697,0.5526204115620341,0.3803422028941089,0.39900660869274795,0.03036879027929616,0.560854476358114,0.02908531627393022,0.9191282152055977,0.7739832928081213,0.5916742503578435,0.03541180824359601,0.4113663463854196,0.020193400311144385,0.34493072370091166,0.013743256272124586,0.7505106621697976,0.13145710413484626,0.6060237090127965,0.05435807358127721,0.8004894435365391,0.23715325794571843,0.8032561890822834,0.3404368615357357,0.6563104823744057,0.11789263413971887,0.7593742241165274,0.3397452021299484,0.644512566464014,0.2118330063765539,0.4906135531135531,0.8371792784910573,0.4592772442694407,0.8928765711131172,0.28737422741348084,0.5555549650415723,0.33835694193511423,0.6032400824594824,0.2133230308657992,0.5654269014713706,0.3918997232182906,0.9098438005990931,0.7392920308271479,0.7448863065256481,0.307990730082494,0.7298582722430488,0.39107341837310966
2,4.521679852556776,0.48538279520647276,0.5069375645036509,0.0512686606098363,0.5006611675015955,0.018446632388400636,0.9120176666232085,0.6855766311153713,0.8412396936876352,0.44837420303894154,0.7400298157568115,0.1586973239550372,0.28044342573763603,0.012618643067904924,0.44685484874738224,0.25297909993264117,0.9594371560062842,0.5528952094780915,0.5821227047556734,0.1938004347081826,0.5801385753807722,0.448538751768444,0.41532746893073025,0.0322977552081061,0.6077029891205783,0.030837079528488624,0.9250450637602027,0.8006617013550026,0.573288671761949,0.04158975651080717,0.44322786402704817,0.020715895546271984,0.34921140962014946,0.013310622787434816,0.7765166867755274,0.16832085730476223,0.6323365073958147,0.0725021280300255,0.8325003301474108,0.32526245574971957,0.7438252573891535,0.27404776893325417,0.6326974341343605,0.08213354223308572,0.8050484759822989,0.3898738816963976,0.6403004898975396,0.23067041067937302,0.4981684981684982,0.8512767818992004,0.4939652044733794,0.7413724684825577,0.18321514589226576,0.46315517526455025,0.2600935362784052,0.5763780122112433,0.13520671678002383,0.5903162149515911,0.4486828204263219,0.9166982067681347,0.7646375056154698,0.7923388132545593,0.3582644839880644,0.7045050961188339,0.37772363049341867
3,4.371634791874811,0.5563697427677277,0.4811617036877919,0.09020075632067598,0.5513464867416791,0.020269600539398115,0.9053370142506847,0.7418081554545671,0.8676973768333515,0.5079016528256151,0.8126006724944034,0.37540423258840705,0.4264180957554124,0.019320026690614493,0.6219900310936199,0.46599443192311185,0.9367908724094506,0.4246790423126715,0.7273502263156575,0.3718533427670799,0.7344935040652592,0.5953340228904295,0.41846803507722874,0.03432857940263337,0.7098184436206156,0.040395202308890196,0.9249098514250423,0.7769019598507344,0.5620354648895242,0.05245011304173544,0.49540865902236153,0.026921831555056844,0.5020432908209089,0.02398829965055612,0.804173891540992,0.18190351755592607,0.6582939834165519,0.11665886471992695,0.8050295894616947,0.3144938048552966,0.727143438468625,0.3853789877202084,0.5769766203188221,0.06768803139262568,0.8354045060877947,0.37408268868045325,0.6856768980817033,0.27308896113848247,0.5840201465201466,0.8769507803121248,0.5115375509970042,0.8103546485619377,0.36140500241395435,0.6151586415816326,0.4508806644580412,0.7135338041126472,0.3740916166720645,0.7229477463759171,0.5705526271145821,0.9182670316547927,0.755809731067823,0.8042855627156881,0.32912387845081514,0.7802140307592486,0.47905729588204066
4,4.251132727069678,0.438897794061522,0.49578002781227837,0.08471397881481765,0.4234961808925142,0.015000032661224849,0.8663314899078596,0.6425885133604302,0.7899938197644407,0.4303963248743882,0.8016313632509365,0.27869693388522626,0.3544371598812224,0.016163872380870394,0.6399373002848536,0.4024797094055316,0.9549339082476138,0.5292557733188326,0.6185671072787557,0.24758010181785606,0.5161334539653132,0.3438977010557232,0.3707949025170452,0.028325931245078623,0.4989447022616358,0.01739127114592152,0.9363081544281235,0.8313505728078181,0.5551317471713866,0.047672651303815136,0.35662562312107204,0.01732207546898436,0.36613707992939504,0.01746430807022207,0.7464166412789504,0.13853464508007482,0.6625878312735816,0.10953131916564784,0.8186764390300268,0.2591082078218128,0.8213427382464875,0.4502112499382803,0.5271315255199645,0.05028771008622651,0.7566976086967105,0.3388421087649935,0.6308198547618257,0.2407643178397171,0.4690934065934066,0.7714417970578061,0.42074245478003924,0.7851546055112236,0.2691419468819035,0.6347908694727891,0.39118628563703134,0.6219922304201759,0.1926548850733868,0.5041749726262141,0.32021851738076174,0.925073115689767,0.793577699632122,0.7124205653402427,0.2865197023654306,0.7078640223026028,0.3820059273929536
5,4.158103133874871,0.5282039538966491,0.6266446311158345,0.19206010789262987,0.6308481449424875,0.027044589920240843,0.908720482625524,0.6840423450714862,0.9096020970178588,0.585673864118168,0.8797139560999846,0.643307637797892,0.4723524564964871,0.024869070659023843,0.7934114471619785,0.6339386004646977,0.9717531762235242,0.8268713211755929,0.7420729523238696,0.36912798583336737,0.8065188629106826,0.7106539300305615,0.4364653946830515,0.034659734246507784,0.7203611554620554,0.04477543311456428,0.9140617038747395,0.7375618747247379,0.6990883891455983,0.10047931023524283,0.5672004469451309,0.03709888525136941,0.5567389442211853,0.021096828463793658,0.8114933546813832,0.17699977820560978,0.714310740658993,0.15357347498153112,0.8725177041549053,0.5108627922730876,0.7877551625210673,0.4377149543608798,0.6730862142835747,0.09738297899015166,0.8540389146637717,0.3698698694335071,0.743125287827895,0.3372575166929383,0.5382326007326007,0.9156347284676584,0.5980504033581474,0.8713014274826095,0.5730822394149565,0.7802600033068784,0.6147743370264783,0.7290385408691336,0.3634191581916541,0.7897467510263253,0.6863241336544237,0.9065768701424871,0.7032475414906404,0.8237480315840024,0.32474801284464555,0.8309009075541564,0.5519494037115636
6,4.081477872506961,0.47683382947866576,0.6569763272610397,0.2369628748442573,0.5913356457803307,0.025909494472853276,0.9196602620638663,0.7152653191684264,0.8759539110709093,0.5414753017846865,0.940169774608361,0.6591464550400138,0.5538958131071196,0.036077267294395025,0.8060260804086155,0.5985369292179595,0.9761391945793796,0.7887384515713513,0.7619010933117782,0.4158820148284693,0.7595265605637697,0.6424486161978643,0.48533885968498325,0.04298192707172967,0.666679042348099,0.03170944428117674,0.9291585899064475,0.7938240803354537,0.6063165995621602,0.0995787297070285,0.494493137636243,0.02576054958903459,0.5315239449708806,0.01831572997777603,0.8043060866099145,0.20006299414556436,0.6907183438102306,0.18543203717758452,0.8022802868981,0.34053598320099987,0.7636277076886455,0.40988146364592,0.6134713480724427,0.07120041202523139,0.8396448157596235,0.45161430114112033,0.7304156102592245,0.3332427443963134,0.573489010989011,0.8657924186623802,0.5469964523901623,0.9332739555625842,0.6218437367068522,0.7887081916099773,0.5630773873921311,0.7424451468441704,0.3695964831738155,0.7404689201281838,0.617921767720009,0.9136808563390546,0.7517750085029616,0.8049618043534104,0.385681139309252,0.8270473276428227,0.5509845678850263
7,4.027341254584963,0.44072971528890925,0.5720510020980342,0.17834562972846738,0.4760763005510822,0.018831942663418415,0.8750810718777705,0.597970878452771,0.7846511126791913,0.36091473389886647,0.8021451194488513,0.49999855897861417,0.46046921656654993,0.027513776625681614,0.6986867866785352,0.4859493240109636,0.9715632561874225,0.8473982012906,0.6895154242090294,0.3345124165404475,0.6141550311571673,0.40770343073389637,0.4145291206061539,0.032725144119930556,0.6508494051802663,0.039817882241471085,0.9314098549341342,0.8173361719609576,0.6173478487251233,0.14245045327273648,0.37747096352678555,0.017759615015486917,0.4258484546627336,0.01790011113441755,0.7759295259364041,0.16639472239367126,0.6850277983917079,0.1590119091550549,0.8551271892900181,0.4050103264481119,0.7797799147076284,0.3707571285891516,0.5915017665313607,0.07526461239382086,0.8213568163340814,0.44211755491269483,0.675935135467274,0.29298566020732875,0.4706959706959707,0.7712952977801291,0.37367411682152135,0.7835599719145341,0.42801102140668684,0.6811301256613757,0.4555800388279048,0.6721957974090667,0.29098503703991546,0.6038934455354323,0.3804645786225396,0.9149373583225388,0.7699077260587104,0.7732398731279109,0.3681059143954245,0.7428931242501411,0.4381040618818147
8,3.9594806380403305,0.5901839554232501,0.7397336029498458,0.26602057964336284,0.5531578671282819,0.024694685249115826,0.833169651238053,0.5599719225041373,0.8117520375834095,0.4419019166449598,0.8616861616284963,0.5167647622296144,0.395156045177192,0.022044082711432232,0.7944934132372715,0.5490595826326654,0.9305556547640307,0.5655153223462988,0.6891365200997674,0.370878332482019,0.6906871573407982,0.5337805838848325,0.4222894131497539,0.038622640533826504,0.5849730255769405,0.0276492694981584,0.9435890853200641,0.8398156652489714,0.7033864311486859,0.19342040585726203,0.40783203652864114,0.019322665420650066,0.6205007148084862,0.04078612761846811,0.8103267499741649,0.19325581148564516,0.7452405573234294,0.21638405173518577,0.8938397588273164,0.5058513216037186,0.8514362137911322,0.46956103691488316,0.6226022901747518,0.09733020180395185,0.8302730866409297,0.45544698960066693,0.7152644306550656,0.31582172534771935,0.5798992673992674,0.8106028852218854,0.40891667061138587,0.8649712153260541,0.5016146438999737,0.7744533316798942,0.512368401373572,0.6734422392202216,0.29892540289581027,0.6713808009225571,0.4939580990732575,0.9242319057642489,0.7823083781581178,0.7784861903751438,0.36319986657599357,0.7853669383585722,0.48018449465544427
9,3.892179658709387,0.5562170826654453,0.6249095131882206,0.19473802999627807,0.5619880050008306,0.024788255709735835,0.9017240310808359,0.6655909260647084,0.8940071842278494,0.5757726005036943,0.8572175231496427,0.517153451854511,0.48175198155191606,0.032807961768301266,0.7680245120917695,0.533169454134221,0.9448078509245368,0.6792947448796571,0.7702837870591143,0.41722113068304045,0.7253549752741829,0.5500417575203405,0.5034374579510322,0.0522557431743297,0.6455209044079553,0.030648523975536586,0.9525698484774051,0.86908289316331,0.6789145729037165,0.2015352278831363,0.456903541373081,0.02249506111127505,0.5283633483618786,0.028702747664949724,0.8227691914359069,0.21214690670538966,0.7158948753286885,0.2281452349663867,0.8652839680417306,0.40762106800028264,0.8569209791638186,0.46781846881196437,0.6425500300173592,0.08738392770596996,0.8357876403892683,0.43728382340310373,0.7288629873363971,0.328895360894551,0.5647893772893773,0.8846012981463772,0.5384350202540937,0.8548828515387336,0.48630698447211845,0.7492981741307634,0.5027757347652863,0.7514428466177011,0.3496212659559608,0.6961137723933454,0.4833703830347625,0.9303751416774612,0.7996236287448083,0.7892167100369673,0.35455365050401516,0.8079901135059071,0.5020980953901493
10,3.834497038767216,0.5577436836882681,0.7103241374075144,0.2695193980335682,0.6067969476282482,0.03075253457014082,0.9119518201883027,0.6816542224033021,0.899181059590731,0.5398579788816839,0.9229186729804574,0.6490945233297287,0.4742941730141684,0.02770514635106499,0.7549076626637579,0.5462593173321132,0.9829685426032239,0.8569737762739438,0.7857349199507611,0.4609764231582992,0.7405139281005134,0.5887320916852964,0.5749135577593452,0.08509503413274698,0.6996097040854805,0.04167766620033926,0.9447638310863447,0.8411503229518918,0.7241439684013231,0.270920734167217,0.4657676424870594,0.023728774754594298,0.6248012565190089,0.0358189476077962,0.8413684336964559,0.23033057012240382,0.7335621045094396,0.25652442880520543,0.8415400757688308,0.4242788295399377,0.8086714070437109,0.46927010723210777,0.7066744672732648,0.1657493911072067,0.8488395217393422,0.4757381754669989,0.7547385379316949,0.3623549270048903,0.5940934065934066,0.9024640364620424,0.530382076773093,0.9212014517169401,0.5895497406913814,0.7331428925736962,0.5059310076023433,0.7588798568896031,0.3868058795510436,0.7249160950615154,0.5452796265820568,0.9160387740851684,0.7515572876032196,0.8056129172762706,0.37803390833927725,0.8231794320093195,0.5267913610203451
11,3.7563602898323065,0.6150675520952599,0.5843546243162008,0.22533682298606986,0.4984512652159595,0.02543289765029131,0.8606981584589923,0.6358543997331113,0.8371158663932524,0.5498834771786767,0.8418595139906616,0.4839203310336163,0.3736067236228947,0.021523736863787273,0.6362897098949885,0.41481628961770695,0.9461904435767323,0.6747844754627327,0.697271138216721,0.36317076348359145,0.644924151235576,0.4574013771393424,0.43647213857477163,0.04142580924555812,0.622219492348407,0.03779349294415063,0.9481200670938401,0.8640557712398542,0.7079036543483133,0.26635120897311515,0.39297841939757566,0.019505572040940077,0.5105139198375314,0.03697704703962768,0.8125158533426563,0.22779433463548998,0.7265395998908571,0.24857905236697297,0.8474246438534806,0.40069659170258354,0.7868460272893527,0.39616397364967443,0.6288572957810308,0.09915642815733322,0.848602101396712,0.5052725862955743,0.6904434003671139,0.31799529270180915,0.5805860805860806,0.8156398152481332,0.5106107853704087,0.8292647479812656,0.4459629856370841,0.6192556275982615,0.3928691757020051,0.6817864592557882,0.2592285016051793,0.6336106894459669,0.40576995023178125,0.9203572801975389,0.7779778170254752,0.7944864807514045,0.3930009502063603,0.7563430143540513,0.4550600236826134
12,3.7462938859730075,0.5842302114342417,0.766230935587603,0.33525684610690215,0.5664456946520837,0.031206851213655913,0.9262192345100589,0.74852512480957,0.900381943293379,0.6150741025294137,0.9142374820148935,0.7107705818653856,0.4809493501054676,0.025826195382059894,0.8054105606377286,0.6183411744088931,0.9761532705112589,0.7041156149771038,0.7856671924083067,0.451630072371027,0.6438099734488034,0.497941025717234,0.5213082090182531,0.07738741322938406,0.6706988575820269,0.034799226300982006,0.953636345771895,0.8691611325586638,0.7412988984756618,0.2717559699833378,0.4806947122447368,0.02355113724256816,0.5770081813282819,0.02558137548080002,0.8130813731108519,0.2254919756514482,0.7514350191955759,0.2977287911075405,0.8785744647485103,0.4593873034117922,0.8849524894786637,0.5307736466288978,0.6758319236243779,0.1116569082579314,0.8492894124462663,0.4838142283796184,0.7528779783724857,0.3704443953461004,0.5695970695970696,0.8886249415020244,0.5568571458620815,0.9054440117408374,0.6392491276918469,0.7773157005857897,0.5741363037427033,0.7566085012328393,0.32365621016067725,0.6204974685692644,0.44314164859413646,0.9231984192843264,0.7788792793545475,0.7966905482527167,0.36644598801782446,0.8097685130239711,0.5260522433462596
13,3.659996867480146,0.5710251125868254,0.6071220106242258,0.20614792723931272,0.5804460531032252,0.044878361279538176,0.9050749470879805,0.7008888389858956,0.8654193325345595,0.5963159595502888,0.8847681970056136,0.5264493726928524,0.46950637277521523,0.031131696670875175,0.7974201291282865,0.5690761335185,0.9543172983958901,0.6681475447661194,0.7657194461922734,0.4417819262163751,0.7070618793741007,0.5867826442709828,0.5144857188458696,0.07549647794132086,0.6874364819576252,0.0505804209628137,0.9591766968214643,0.8864992386387441,0.7210757582983438,0.2857857151196466,0.4736047557080907,0.024643846768214878,0.6501921743687342,0.037403556049923195,0.8127354514964885,0.2498194184869682,0.751662428983321,0.3278206924566046,0.8589531850971458,0.4624354379175274,0.8253666893233491,0.4786110072004792,0.6615103875690367,0.11929872535387047,0.8334724041068882,0.493480386928148,0.7402967181271695,0.35743069677340916,0.5615842490842491,0.84040734938043,0.5048530447410399,0.8827142596704864,0.4803310149351203,0.7692280210695389,0.5169425472028478,0.7370871126800054,0.31685799382156027,0.6832441217773272,0.5293854098313207,0.9268505353384067,0.7827008691636657,0.7868333910363082,0.3671069636798747,0.8037663987075003,0.49973969191077566
14,3.6026304251692167,0.6053736356003359,0.6733555303956547,0.24689601837295239,0.5699915924264811,0.033851991362870114,0.886787851027839,0.6756276419598899,0.8425872691883289,0.5585950409704941,0.7389203524181693,0.3370452109614491,0.3858739530990755,0.02160709211628222,0.6295019152878838,0.45394021395050893,0.9204081684103316,0.6129158501378105,0.6850110799752133,0.3342254244661925,0.7475205623253041,0.6050345988774497,0.5447313506505769,0.09042573976599227,0.6451653744630266,0.03408523583431571,0.9601392548092107,0.8900771746881979,0.7199311816773666,0.28514477474852096,0.47272651244966846,0.02704237126333736,0.510697261162666,0.04160500971397199,0.8149092886831627,0.2531984421453825,0.7578310824080238,0.3060051282112024,0.8726829842024464,0.48656105716063985,0.8513797314147489,0.45831247055665425,0.6400216046850522,0.0934445138321933,0.8583273291109045,0.49769516762396765,0.7149318741032334,0.33378800766910344,0.5652472527472527,0.8278206197733331,0.49389727632798225,0.7222749373824434,0.29797420906827365,0.600994425547997,0.4032749346729465,0.6583838896424294,0.2121914112736883,0.717455571418897,0.5366097615719746,0.9252704521534976,0.7874721044227769,0.8052516221981482,0.38422300595141107,0.7510645025881066,0.445091814755579
15,3.551703741255448,0.6374322570796123,0.7216825136356074,0.3367956505119033,0.6270771223658942,0.050420848559254904,0.9242537307897765,0.7414000102969465,0.9201698262430325,0.6698759747355206,0.8473870922383978,0.6006103116863593,0.46562116269605974,0.03189249219705032,0.7972582760896822,0.6498601952702235,0.9660499027500169,0.7955627253520169,0.7578405749169896,0.45146657383054234,0.7443949545331404,0.6177892248656139,0.5650079850889342,0.10181171219473713,0.7273560959184888,0.061644228536964926,0.9589513850386353,0.8700644784612017,0.7501376823760679,0.33459343703337485,0.5164896854854175,0.02894049001739727,0.7027328249261069,0.08067346440900364,0.8396577825317302,0.302077091304971,0.7676997287071619,0.3682935562651988,0.8713056504729362,0.5210675055829869,0.7995654760595983,0.47403420151995185,0.6593425612295527,0.13860209243455354,0.8954532619966799,0.5979045110822299,0.7647925125495413,0.40115367164309107,0.6192765567765568,0.9069500681628584,0.5984893301232309,0.832108438013195,0.5119072473922951,0.7663439507747544,0.5940996249206325,0.70136531182976,0.3081265078381069,0.7094223511107111,0.5433065619616664,0.9161924688309586,0.7352648958481627,0.8473595304839231,0.450379244206913,0.811391731315166,0.534510487470144
16,3.4865094427934684,0.6372795969773299,0.778570413356354,0.3562077076198813,0.639189055291817,0.03777698227806491,0.9429193820423338,0.8261294863501226,0.9264658524226049,0.6514745435240543,0.8932052049895366,0.6375826877026708,0.5190787864212529,0.03731408642840924,0.6696498054726168,0.517237155385798,0.9651078657567872,0.7625265027707192,0.8326864940116794,0.5663290041703798,0.765269449287609,0.6659136360514786,0.5952305752635979,0.12285222460048503,0.7081934082900413,0.046773324226261695,0.9657369584593682,0.9042765046327697,0.7905558709529057,0.39814827262118657,0.47168652626219576,0.027092433714178174,0.5601981199720312,0.08213961446718387,0.8409635443578205,0.30064721638559716,0.7824863180469697,0.3823499281497891,0.9007951394047441,0.5657008956067414,0.847879337711076,0.4753252671534191,0.7086563943486623,0.16773376767864373,0.8799141720745237,0.5731388644811433,0.7720199397362059,0.41384864118177167,0.5837912087912088,0.908186664496307,0.5707054156642328,0.8796721556327246,0.5545786279567144,0.640852200255102,0.46501896009447546,0.7832962361898966,0.4196412550786726,0.724800162305858,0.5943601772967909,0.9257546854760362,0.7851829585983229,0.8262648119813714,0.4030147018653887,0.8126895594767565,0.541786013793514
17,3.4304574941753496,0.5561407526143043,0.7743063485321029,0.3339051794340843,0.6640267322952821,0.041186893540091314,0.9088835741082258,0.6800652081738178,0.8936638378078869,0.6429517392449181,0.8566346181676934,0.5905792254885839,0.48730938984016675,0.040120131571757214,0.7270351896747004,0.5345593419444495,0.973226106945989,0.8191815940166545,0.7816333590831321,0.47605810771696894,0.8034784076480068,0.7101535892520139,0.631584647562613,0.13574694225601416,0.7299348001196277,0.05538209571789556,0.9673636893190256,0.9097382982937867,0.755852399266478,0.27194006012223454,0.5325521440073693,0.03263074965749779,0.6588697118646332,0.1350656113673977,0.8261230541489791,0.34676753635718344,0.7881381942428913,0.3944586499121287,0.8813454332359398,0.49877902060544943,0.7717371907689473,0.2309866222266014,0.714393681899337,0.14856198793013972,0.847835376391722,0.5333700769460675,0.7716330857695796,0.389190393717079,0.5682234432234432,0.8680977475736057,0.5196959709367958,0.8343232068974857,0.49839044916347214,0.6891401525888133,0.4697468626216883,0.7413313997291695,0.3049478622367141,0.7562892823232925,0.615868229161244,0.9198183998542745,0.7701003684529464,0.7843624007415763,0.3644759338295299,0.7990517985297455,0.5061750966289129
18,3.366730015274769,0.6047629951912068,0.792172910970022,0.3309944986283727,0.6696832661601722,0.06110837307660171,0.8738567320027023,0.6315130441666045,0.8490967621248644,0.53363810031413,0.8051850113181359,0.43251159663400973,0.47160446914666954,0.033268805223579175,0.6288185555380494,0.4411402412231618,0.9630607630667717,0.7697712327078101,0.758640768816556,0.46809348172530085,0.8340321120095171,0.7447450070766866,0.5962741122228541,0.1347559406969408,0.67097431629778,0.04056575973031107,0.9590297781552002,0.8852596970995229,0.8017791894803479,0.36148372946759616,0.4874274609327674,0.02663805773524131,0.4513926517984521,0.018731199202235357,0.8274725175175243,0.3521824293457392,0.7955714615923377,0.4058919069931096,0.8985671602370457,0.540977546978291,0.8708309394046869,0.4885768353039986,0.6840896275373134,0.14972582715724372,0.8708868135104741,0.5604666508000039,0.7527476081745568,0.38236545278574957,0.5519688644688645,0.8249150507660692,0.4888867939847604,0.7772173131229265,0.3648966598809446,0.5949640967498111,0.39171803212290857,0.7100490415167836,0.32646949797307717,0.7781874749706477,0.6415494617981288,0.9129058047279793,0.740561325230819,0.8115902009180357,0.40842434767420166,0.7728327118246076,0.48035801695211994
19,3.3123445645442184,0.632776123960003,0.7843684335485205,0.35515542859879795,0.5667979530399863,0.05229790471652613,0.8890518063926917,0.6884456242613686,0.8686566748911948,0.6543431737977323,0.6994343843548885,0.34606312788981125,0.512288702088678,0.03751113025966244,0.7252371636549098,0.5227337892309666,0.9772081250480578,0.7957895226257372,0.7619901927891808,0.48499152166104653,0.7109495152576324,0.5891721796038722,0.6031546480346854,0.12785938734342214,0.6941172968226779,0.061051483885271506,0.9737740285078639,0.9312547989083159,0.8014032169658659,0.3341502589297892,0.46839403373376254,0.023538216011109572,0.6002791687141018,0.104693538866804,0.8282755857852051,0.37162857774569635,0.8008274344665298,0.45188019419853875,0.8901797652651909,0.5768005020735356,0.7972601347228158,0.4216215854647691,0.7209704788061817,0.21522604502225948,0.8481239137631383,0.5796318668332704,0.7510337571206255,0.3966290844512866,0.6066849816849816,0.868904510956925,0.5799460940962253,0.652573048935044,0.27064693493093267,0.6875679091080876,0.4560136337993332,0.7203190002703862,0.3161225747851634,0.6751904181577448,0.4999523113882605,0.9258551246761658,0.7945756984707952,0.7648597259294831,0.3727676173705471,0.7564671054334052,0.4700035521201797
20,3.2689836908138377,0.5628577971147241,0.7446148839297684,0.3544211226039302,0.6069728946823918,0.04887104552395914,0.9259380479820253,0.7517883120683317,0.8626115875864876,0.5679575407109495,0.8354052135871068,0.4650660950716075,0.5051337314306328,0.03410404825639453,0.6777887449807463,0.5025439045537269,0.9618000217651723,0.7136377438623536,0.7840294634211573,0.499863235966617,0.7234048483110989,0.6272948762139934,0.6265275316168095,0.15028428427514673,0.6999915822553944,0.058803619815058675,0.9643117196656537,0.8965500816890598,0.7945017857877816,0.3164876043532353,0.49162186342569314,0.029180137966240277,0.5810643297946726,0.04442852219100318,0.8186478256259805,0.3432472998030678,0.8201387573362903,0.4682643547621542,0.9239315604417372,0.6055604508529817,0.8477544232312891,0.434859391944215,0.6824552767392162,0.17179627100021702,0.8585229125996174,0.5533525953075499,0.7607804093725783,0.3926528426723542,0.5235805860805861,0.8445367977699554,0.4896814967972831,0.8072202929937892,0.3777960469109723,0.6413159013605442,0.43380600656936424,0.7165280404990875,0.27791807823548115,0.6731788733732837,0.5336565148521535,0.912538581808614,0.7405196839587407,0.8028286556695964,0.38311449015423776,0.7711638776392673,0.4623560453540332
21,3.227996679546542,0.6203343256239982,0.7671134343641537,0.32494703898255783,0.6545082880898051,0.04876103309967054,0.928233690398469,0.7719824566814885,0.8936259513063739,0.641062623223899,0.8631799894465683,0.637940434645144,0.5353923446138098,0.045580800507303426,0.7547390886365273,0.5977771543866496,0.9784631939591983,0.7789070505704272,0.79778881065779,0.5467149370726941,0.7998214400603842,0.7084334186135743,0.6846867735263071,0.18607483872990288,0.7189590534896342,0.049946415530592,0.9774235263567904,0.9360683903107253,0.7837325087852135,0.3149624738814704,0.48006159720100117,0.03281207274174684,0.6451989067809568,0.06638533257900417,0.8508280980954515,0.39256239145909966,0.7951930245936256,0.49446008221538384,0.8748258472407932,0.5556000981510343,0.8369786373933406,0.458049374046604,0.7238370389470352,0.19132468990776966,0.8575229052971847,0.5738369959069037,0.7819142795109278,0.42519045923834753,0.6046245421245421,0.8646204244409629,0.5358514571706795,0.8128476363473958,0.515032879941631,0.7023224914965986,0.5052589690889004,0.7457253153164658,0.3407165522215235,0.7416605750877787,0.6046179182287419,0.9257660702720206,0.7760555445488334,0.7858595137314466,0.36658696023752724,0.7969717180989527,0.5205886116339766
22,3.137204357890007,0.6155255324021067,0.6563966625265888,0.2541738173810368,0.5388893988803501,0.04466144154554094,0.8960827469649244,0.6807217357728149,0.8733506940333496,0.6093066551375959,0.7182817310710877,0.3582020901691509,0.4379241581403118,0.03285704726747179,0.644552923067816,0.46002519758136334,0.8249283913226713,0.35844423302776945,0.6920536399748313,0.4286092721673439,0.6547472435046199,0.5155826155552976,0.5527699090120551,0.14846392555798849,0.6463240119928908,0.05953578940802363,0.9725056320927523,0.9245497536316784,0.8356382745899416,0.3727354085080314,0.39087122417937836,0.018744431016445455,0.6236666928936307,0.08750950634274557,0.7794352116664498,0.348444939902614,0.8099346012203833,0.48137680632976154,0.9154694696181847,0.6354940832943039,0.7819161275746483,0.3297035981287949,0.6053541592599971,0.14613507026148798,0.810124092672739,0.5615263652994855,0.7118734998299818,0.357127444694852,0.5952380952380952,0.8473375790994364,0.5307119719911673,0.6794577806478255,0.27924629460175565,0.6051953420256991,0.39442208517926697,0.6242119517391055,0.21832723065853785,0.625943799924588,0.4270268449143868,0.9154102068490932,0.7430018787118703,0.7336012798892103,0.3391986926124023,0.7187368485964226,0.41884785695276955
23,3.0509561188083945,0.6001068620715976,0.7417073541026341,0.28619636989302294,0.5409282718866478,0.058756159712614615,0.9047805335852256,0.7351899144486794,0.8529453795043498,0.6287640497388569,0.6763657933853172,0.3250509879321995,0.4302046799040633,0.031043675853903274,0.7055271213217289,0.4836883637402874,0.9302615308143158,0.4378586058390093,0.7091466210254469,0.4239555982862488,0.601071661607946,0.4508519636608226,0.5596712384900233,0.12365598184473017,0.6041973064586001,0.047627547812872165,0.9787527563918113,0.9446735913438637,0.8271460648319034,0.38182368196174815,0.3858330361710654,0.021375674416563555,0.629225201044526,0.08887856094410966,0.7902773882012211,0.3445689002448626,0.806432820698201,0.4930266679980139,0.8928283728684858,0.5461195845141635,0.8080800548858929,0.4040051375127552,0.6121604815279291,0.13486340908244632,0.7932321053887085,0.49112459269569914,0.7173079897316385,0.35832268270352147,0.5567765567765568,0.8209819521028751,0.5259436331136838,0.6465151984396313,0.2761981608777807,0.6651561318972034,0.405988856461562,0.6476755942251713,0.214342845240151,0.5751267944843876,0.3607578393719239,0.9224052784974093,0.7801183916874902,0.701667150627101,0.2644866354623547,0.7113611571819684,0.4039766231735637
24,3.00394636080944,0.5904892756278147,0.6487259973738232,0.27194094461777985,0.5728286020696911,0.0794139342629718,0.8717314744475452,0.6285963888721907,0.8650804851366517,0.5890585935667534,0.6339010327188925,0.3427429488854858,0.4267927558217436,0.03459473910034713,0.6649739038229113,0.47975185696341893,0.8907043806400894,0.5245751842122671,0.7247482529338651,0.4492683433352158,0.6588331166953559,0.5161844894526689,0.5914119268615309,0.1451709855251478,0.686277160058281,0.06974888965481175,0.9753413153480668,0.9369950972707444,0.829409412836113,0.37052074785771333,0.4105079684450459,0.022703898427131573,0.5660889806667686,0.0652997166288978,0.8448405673785516,0.4341909679067485,0.8268586861501617,0.5028686799155648,0.8996702652734446,0.5669186275909192,0.8045572753602683,0.3769298870658407,0.628300053783815,0.1539516652493285,0.8562783273534524,0.6153327053302101,0.721720997326185,0.37167087689509815,0.554945054945055,0.8467210613058782,0.4882419766860881,0.5947232856773642,0.26844659349414945,0.6254154265873015,0.40763512650553424,0.6527768447200003,0.21584850667571215,0.6192765517362462,0.4111708552229769,0.9109544506962436,0.751091243802111,0.7677841499234971,0.363320026058075,0.7168073958066473,0.41510776120637816
25,2.9690810438695094,0.5641554079841233,0.7379402601304044,0.3127374621576836,0.5756983968782694,0.0518700045210059,0.8541936185162482,0.5183443878554562,0.8222417442945297,0.4775798546795729,0.6736946807586893,0.29194221030897693,0.5055029122786026,0.038844371332005426,0.6269519786655142,0.42253577488435456,0.9309749914809099,0.5968731113422066,0.7800595966554712,0.4834183723706279,0.7102993702256346,0.5993720029779026,0.5804941281577068,0.13263758463056688,0.5598036270213709,0.02148567537610095,0.9813047365724592,0.9509339090009947,0.8133471222586834,0.2949302181061791,0.3974370796707164,0.02459141104880604,0.5688719461050731,0.07059110516014153,0.7897076744270317,0.3220140639997531,0.8247338775410893,0.5021045805148557,0.8755695042836625,0.45575480642577526,0.8054877607709263,0.33865356568170224,0.5814030413249831,0.0914966410740192,0.8200552185618102,0.5509797748196598,0.7188987848445357,0.3431677676485612,0.5661630036630036,0.7890908905935256,0.3917731045403679,0.6297151697391552,0.23924967842594988,0.5860600316515495,0.3649768969983284,0.7034301301351876,0.24983954530715516,0.6460152156168111,0.482459094028973,0.9247963386496114,0.8001883523702297,0.7438147064407689,0.33163287643910566,0.7175603546895155,0.40858850687287285
26,2.9120698357236248,0.6842989084802686,0.654896059281177,0.2545501863378929,0.5203209740545487,0.061971353760799625,0.828426235593105,0.5028963462741142,0.812841392897228,0.539616002910763,0.6283840301675379,0.22793638485024037,0.4490608915902587,0.05256518058846047,0.6651265639708223,0.44988904890397924,0.882263443460343,0.44078751811072214,0.7183809087728809,0.4553533782758028,0.5874925062076456,0.4549800392189585,0.5826504875352007,0.17621351443162636,0.5981652738607129,0.07324844330918794,0.9847470155172051,0.9645835593789833,0.7766819625307949,0.3136369553777091,0.3791553462966387,0.021788026413687718,0.5559094546226508,0.10762705399053299,0.7637576817413781,0.4101448887400086,0.7873248371113308,0.5141810906170409,0.8402969675960317,0.4691397887417005,0.7176273131883242,0.30412566634701427,0.587439460651214,0.13497927336136473,0.7695625477700805,0.5222864202516075,0.6859323342916869,0.33875000546328166,0.600503663003663,0.789734877001648,0.44078598839953964,0.5724892025440922,0.17568624676465236,0.6261337868480725,0.3702621172598254,0.6579586003652157,0.23149150869343915,0.5534459757538904,0.35998228211972594,0.9206184980165155,0.7754999144246153,0.6917971498453187,0.28358354467393404,0.6874540129106791,0.3767559431908189
27,2.8753715849734385,0.7599419891611328,0.7189111379938011,0.3286319012336245,0.6818425554360718,0.07334056739856162,0.8584171852107754,0.6403109985915841,0.878146355555345,0.6156501028427275,0.8313363535581182,0.5712611185996017,0.567638877453283,0.07062023476777085,0.827802891369307,0.6970998589994196,0.9343906108912418,0.5666322164959133,0.830614580435486,0.6380074976349607,0.7945940885071109,0.7247693594063328,0.7074743033640137,0.2580664025796686,0.7514303322134768,0.12365742893487773,0.981599626632605,0.9415027311917449,0.8648347778822326,0.45313999485216755,0.5717667723370786,0.07461844342949106,0.7040596371474763,0.1490840099907418,0.8798033111845082,0.5450206702989479,0.8642851060058082,0.587761322437824,0.9270345334191717,0.6731622564274052,0.8356166871723982,0.43198128272456304,0.6933848511959411,0.22830395805377451,0.9061756673206401,0.6858285473726201,0.8005072837402676,0.45811140473928746,0.6112637362637363,0.82720308462368,0.4615189843076911,0.7904290501533499,0.4859948156318502,0.772463742441421,0.5679676744965458,0.74342064718368,0.3423189741270075,0.7170178973978392,0.5884872432423085,0.910616322255505,0.7198372415716101,0.8296510459129541,0.38313206178917764,0.7986859699954899,0.5070367135951701
28,2.7985625018801237,0.6939928249751928,0.7646030612887648,0.3620407063102248,0.6183154690610037,0.12904367228107777,0.8687708160029747,0.6619250094434657,0.8761671410372377,0.6632884219404154,0.6198699095148555,0.25563410893802313,0.5101683926698128,0.06669672527837542,0.7037049255928397,0.5059404873282054,0.9325059066391758,0.49901577193820396,0.7409983857622319,0.49408260004729543,0.7449984020227324,0.620526435665816,0.6185471794636295,0.22449068146599735,0.6430900240145251,0.10781127274112293,0.9936392513001187,0.9831258811264979,0.8506281778823634,0.42129970244799125,0.4634294209774816,0.027808709167008706,0.6354365379219633,0.16669580531203598,0.829948826416467,0.4655620674697706,0.855147177668133,0.5861597385855186,0.9092740471120355,0.5796065832066902,0.8343900078613271,0.41676059595307435,0.6492784764464655,0.21327669897483786,0.8526738465807576,0.6436405315765457,0.750708426510768,0.41338328214537245,0.6037087912087912,0.8313091338230207,0.5132105398146083,0.5778346662215164,0.17804643132492148,0.6460001535336357,0.4079315242241546,0.6531893642147389,0.24152441740013988,0.6904012973321252,0.4832715534913069,0.9222752388277201,0.7628385971655102,0.7514175387261416,0.3566025068019343,0.7246324846684142,0.4204893671746537
29,2.745795822391054,0.6615525532402107,0.7744457329472132,0.33105072302019584,0.5919270537356145,0.08761982866609062,0.8881740050142184,0.6602012497105916,0.8838577456584438,0.6299388916648399,0.7321555889601034,0.3002586604644755,0.5279044744185661,0.04079128493399477,0.6485136533652701,0.46351628049182353,0.9579339725347057,0.6802633411670281,0.7524315351854882,0.5136098253632454,0.6785914307991414,0.5611828615206251,0.6333356508770752,0.1969718334083137,0.657835448833458,0.07210955783356589,0.9850738663878108,0.9610365350143943,0.8246256443959843,0.3070801197016839,0.4515752216209217,0.03476416654362793,0.6222812411391211,0.18742669446922006,0.8405811348913115,0.47339378344133215,0.8565715954139171,0.5864773459640256,0.9253926690767428,0.636423058451859,0.7819848783374392,0.22368457137228853,0.644719093514818,0.1770121763451783,0.8303850268486108,0.6026901609955644,0.749558939270726,0.39670467957018024,0.6002747252747253,0.8451940098073129,0.4775354058159186,0.6749572238439456,0.20509390180308795,0.5981384046674225,0.38227295433995173,0.6542206629515853,0.24684724345039427,0.6294078483688735,0.4575589984910946,0.9203605691386011,0.7721967507147323,0.7545027864952701,0.3349011654233294,0.7252545007532873,0.41091520286264416
