epoch,train_loss,train_accuracy,train_1st degree av block_rocauc,train_1st degree av block_prauc,train_anterior myocardial infarction_rocauc,train_anterior myocardial infarction_prauc,train_atrial fibrillation_rocauc,train_atrial fibrillation_prauc,train_atrial flutter_rocauc,train_atrial flutter_prauc,train_bundle branch block_rocauc,train_bundle branch block_prauc,train_complete right bundle branch block_rocauc,train_complete right bundle branch block_prauc,train_early repolarization_rocauc,train_early repolarization_prauc,train_left atrial enlargement_rocauc,train_left atrial enlargement_prauc,train_left axis deviation_rocauc,train_left axis deviation_prauc,train_left bundle branch block_rocauc,train_left bundle branch block_prauc,train_low qrs voltages_rocauc,train_low qrs voltages_prauc,train_myocardial infarction_rocauc,train_myocardial infarction_prauc,train_nonspecific st t abnormality_rocauc,train_nonspecific st t abnormality_prauc,train_normal ecg_rocauc,train_normal ecg_prauc,train_premature ventricular contractions_rocauc,train_premature ventricular contractions_prauc,train_prolonged pr interval_rocauc,train_prolonged pr interval_prauc,train_prolonged qt interval_rocauc,train_prolonged qt interval_prauc,train_right axis deviation_rocauc,train_right axis deviation_prauc,train_s t changes_rocauc,train_s t changes_prauc,train_sinus arrhythmia_rocauc,train_sinus arrhythmia_prauc,train_sinus bradycardia_rocauc,train_sinus bradycardia_prauc,train_sinus tachycardia_rocauc,train_sinus tachycardia_prauc,train_st depression_rocauc,train_st depression_prauc,train_st interval abnormal_rocauc,train_st interval abnormal_prauc,train_t wave abnormal_rocauc,train_t wave abnormal_prauc,train_t wave inversion_rocauc,train_t wave inversion_prauc,train_mean_rocaucs,train_mean_praucs,valid_accuracy,valid_1st degree av block_rocauc,valid_1st degree av block_prauc,valid_atrial fibrillation_rocauc,valid_atrial fibrillation_prauc,valid_atrial flutter_rocauc,valid_atrial flutter_prauc,valid_complete right bundle branch block_rocauc,valid_complete right bundle branch block_prauc,valid_left axis deviation_rocauc,valid_left axis deviation_prauc,valid_myocardial infarction_rocauc,valid_myocardial infarction_prauc,valid_normal ecg_rocauc,valid_normal ecg_prauc,valid_premature ventricular contractions_rocauc,valid_premature ventricular contractions_prauc,valid_right axis deviation_rocauc,valid_right axis deviation_prauc,valid_s t changes_rocauc,valid_s t changes_prauc,valid_sinus arrhythmia_rocauc,valid_sinus arrhythmia_prauc,valid_sinus bradycardia_rocauc,valid_sinus bradycardia_prauc,valid_sinus tachycardia_rocauc,valid_sinus tachycardia_prauc,valid_st depression_rocauc,valid_st depression_prauc,valid_t wave abnormal_rocauc,valid_t wave abnormal_prauc,valid_t wave inversion_rocauc,valid_t wave inversion_prauc,valid_mean_rocaucs,valid_mean_praucs
0,4.659949655973201,0.5898249324403713,0.7284866586317571,0.102143379143977,0.8043962240408448,0.020312835525087728,0.8848652120380288,0.1302314053824635,0.9715223902191199,0.8041421331615793,0.8895176166891618,0.47362725968150077,0.947572556990729,0.4463936190210137,0.4012286468258536,0.004452874809009874,0.8438812421784965,0.04034710367025469,0.8777584391056724,0.5639334024317169,0.9388448682730551,0.17698870295318728,0.4561640081613825,0.019434567155076916,0.8892337030778602,0.48611602661830117,0.6994314393200373,0.01867944749703083,0.9365187871278756,0.6997146296742883,0.8943313874355606,0.2776370722249384,0.8148544734720642,0.03368444429381,0.5118797618189247,0.009983970164072781,0.5971597734622305,0.024052772503380716,0.6472300256758149,0.14442854959960466,0.7957588854679564,0.3806762286243932,0.9706173747329787,0.931244887440337,0.9525602051102909,0.8631262331688437,0.6511612322796183,0.08817271373399775,0.35328779750191597,0.009573054067897702,0.695568977654637,0.28121591292158454,0.7431747223618246,0.1134080486154835,0.7652694772943729,0.2747585105416474,0.5991717331923517,0.7152470508947192,0.09779657641068906,0.8756278853255259,0.12030565469708765,0.9724402827603108,0.8108206405603618,0.9508215950029748,0.4525869314913241,0.8819527392698853,0.5837236645575655,0.8840818868218261,0.48283207184976024,0.9326797820933791,0.6999063933584295,0.8994657563435943,0.31419888868296325,0.5687325715391586,0.022875375975518544,0.6237011124403993,0.1294218373022725,0.8016432413868818,0.4164953513598346,0.9700213614391625,0.9242345615794584,0.9529264283592435,0.8584812467952944,0.6749434029643414,0.08866769574495972,0.6938740077675775,0.2691200842420475,0.7599291533586827,0.12208221696050367,0.8223805161104789,0.3995968244730044
1,4.013766406047724,0.6235753730466456,0.7991028863827638,0.18137009336745424,0.7867862485661803,0.020937740481348242,0.8980492013287642,0.17835130721255055,0.9700464241206549,0.8046240147400001,0.8829547506640613,0.3224474943322566,0.9573201706368842,0.4097307013203706,0.42531594899067876,0.004737956409912491,0.8295931890170182,0.029122146923167305,0.7947577855356524,0.42809940696152476,0.9559691567074021,0.44613497666233753,0.3888602356915087,0.013773256741602865,0.8572362640337117,0.4594923694079837,0.566340182100373,0.01145422324478328,0.955060230956136,0.8212660956633488,0.839694264099235,0.2617976763295377,0.7758140064681254,0.04255325074889725,0.4955579246624022,0.009442012669549173,0.45319243042745555,0.015597489142666027,0.5390453139910034,0.11158406251453791,0.8379814280248256,0.534798092557027,0.9600777693661476,0.9176742171463907,0.8957420945352643,0.7148764725168296,0.557960651072097,0.062331370369447796,0.36397757343041204,0.009540611399306152,0.5470355786187394,0.22473107672681691,0.5453672112194343,0.06582843264623722,0.7261091892556514,0.27316525185522633,0.6590889065115869,0.7840497610492294,0.13969822010740912,0.8866527156641751,0.14602906844384245,0.9708904008780104,0.8144126972154502,0.9605832534204833,0.4382340220397005,0.8047829481693548,0.4576912534770562,0.8439170369668438,0.43894385783585926,0.9512963340393693,0.8102874577966939,0.8138212846597528,0.23656959070710154,0.42842609452933256,0.01682003478645059,0.5256617708647766,0.10451887289521104,0.8376163640099875,0.548585502511356,0.9589576150864734,0.9108874113194303,0.8915022873551837,0.6994520364414383,0.5720948766168241,0.06210506579986646,0.5506179528850517,0.21259155333326488,0.5827355563719825,0.07970413533460498,0.772725390785427,0.38228317375279597
2,3.8005555056192217,0.7119022441546234,0.860374624164558,0.26007442140190584,0.7941390865265068,0.02217240632756123,0.9443481287920554,0.4241867690713637,0.9659854838631361,0.7708201474942425,0.9265982796280681,0.5624989802978643,0.9816225084610202,0.6175354222690372,0.40538759383944856,0.004494215084766372,0.8320847466539874,0.04848320784938768,0.8276212446220466,0.5079045723981201,0.9702032265811276,0.5539356310850443,0.42867460763121235,0.014974718580205087,0.8828695390663719,0.5407573792236122,0.5849268395903866,0.010982437335996883,0.9567653218155259,0.8239016841788894,0.7995074880807967,0.11392460454824122,0.896299990623169,0.11617056986400137,0.48661052269707367,0.009313830076269508,0.5733424975681329,0.020999954597033427,0.5754312858283469,0.11698888103484249,0.8656666934313778,0.5732356251544557,0.9562982769343669,0.8812808258901486,0.937479681644732,0.80848014726178,0.5959518120245686,0.07572868532747527,0.3599908147254386,0.009524396973707442,0.5916472627996523,0.24980946589630712,0.6052683628643869,0.06696651622965973,0.7540421507868267,0.315582519055843,0.7108996387346903,0.849094221988566,0.20832980695935438,0.9320290078209011,0.3454031648693828,0.9667857503100288,0.7835820874836695,0.9807318662762579,0.6197296471427607,0.8306253970927073,0.5205129336501022,0.871100256869308,0.5210626338713318,0.9497651028111,0.7988424341459289,0.7802439683407911,0.09825668678274067,0.5490776660596943,0.02177229927801455,0.5624897274291865,0.10899779585990094,0.8615478700495154,0.5677456844528765,0.9537707798903206,0.8719182037283385,0.9376953361718982,0.8043077950949754,0.6049698913599014,0.08059261332246423,0.5892418302167212,0.23198023495018014,0.6358702262743545,0.07398056601429978,0.8034399311850783,0.41606341172539507
3,3.6709857097090572,0.5810715544589355,0.8392586466015038,0.31132920432634803,0.76724600585961,0.019078453248666454,0.8895686097959428,0.19558702560507618,0.9792799985706352,0.8671840951388176,0.9363999281979262,0.5608327957986314,0.9891598722696975,0.7274783627033699,0.5697742708024162,0.007696325120065685,0.8222777632444127,0.03573268620019515,0.8072811436885214,0.3181806033556283,0.9707462433744447,0.3490216306853917,0.44236682120447124,0.014968175716290213,0.8451994213286493,0.3684690667579235,0.5890980955356099,0.016550713042648484,0.9484959881449693,0.8166667250064874,0.8040630053243704,0.26368587892951656,0.7563354337854141,0.05706818419198266,0.5318159890677736,0.009881415913889285,0.5727139178842269,0.029413795702772312,0.5793904293600457,0.13280080762544416,0.8377153959797796,0.5399730858593068,0.9543416877898383,0.9089429572127397,0.9355466696163336,0.8299862444591415,0.6297607790718432,0.0883139039149102,0.4084507438842513,0.01041577725188483,0.6091409392238138,0.23133631707035732,0.565636537029949,0.07289061767442848,0.7531178591014018,0.29936480186584286,0.5910652920962199,0.827901019839804,0.26649126050309785,0.8779577969644993,0.16536390585455632,0.9785606268839993,0.8683410322000579,0.9877960138004809,0.6882572690030647,0.8173413734240681,0.3466130679085197,0.8334928049519259,0.33048472322070943,0.9458786984002322,0.8100924293615094,0.7832805753077796,0.2305947553875793,0.5507617941748256,0.02840211853163503,0.5705795251069533,0.12096682854401289,0.8290433590528175,0.5450150389388188,0.9540412377251272,0.9074091908284315,0.9302510743637984,0.8120418476902453,0.64184867541641,0.08473109283839361,0.6077278337286143,0.21830523690154977,0.5936670276296924,0.08279386132515362,0.7956330897981893,0.40661897868983343
4,3.5714863187599204,0.6353836211960991,0.8468076131623583,0.23206297918940302,0.8025730546175011,0.020688953714594477,0.9387637134016708,0.4696782803399904,0.9769214774201778,0.8553808204345333,0.906693465939341,0.4710149045436415,0.9899057477452479,0.7169382547690148,0.42754779422628014,0.004740553325830254,0.8415500916485785,0.032894837195308065,0.8915452107112093,0.5646969487153932,0.951271843197028,0.37057971452147714,0.48974978171778283,0.018082022264693888,0.8902213627551745,0.5231256498124732,0.6564985771067977,0.012920307502095397,0.9637172702124641,0.8317048101323459,0.9067942227835727,0.23744648446301603,0.8415262711741742,0.08736621765633334,0.5538929425508756,0.010458128185886822,0.6537301404301558,0.026138843967408894,0.6324323987603394,0.12109030597000389,0.8717683665942403,0.5772222281734669,0.9451140050228243,0.810863798632371,0.9484281256090423,0.8651656296178265,0.5602742257587864,0.058744496972675746,0.4431360948277648,0.01089931068470677,0.668445612401965,0.27066465586652577,0.6987362701843748,0.09187456826623369,0.7806940646138357,0.31894014249681735,0.6320380650277557,0.8271772775013404,0.17877337021776618,0.9287783179890349,0.3658596534651117,0.9761978149959044,0.8534969577084799,0.989187137435446,0.7038338956246806,0.8943068196605862,0.5789649585546612,0.8712558506299897,0.48092909001005624,0.9567504205893104,0.8093947478607988,0.8965228763338702,0.2378634122616778,0.6289574151778252,0.025403801568374636,0.6208412879907325,0.11434985248187142,0.8631829480102353,0.5720398924721517,0.9414363976908318,0.7903169032898112,0.9470475888701853,0.8560389252398606,0.5686380345184583,0.05898004391633804,0.6601132442509436,0.2485167382856171,0.7185259114109009,0.1000656415298507,0.8305574589409747,0.4359267427804442
5,3.486064646305958,0.698625308424392,0.887502033336126,0.3678121280471589,0.8288649086165543,0.025176722743933903,0.9666357400792138,0.6079822732703878,0.980392848267478,0.8693633712475124,0.9201929213083804,0.5313564865981346,0.9889852326975177,0.7109451075513253,0.48633895205002087,0.0052113805809828545,0.8326061249885108,0.04330621624795668,0.8528685501420065,0.5593100275622103,0.9771174821541908,0.6793767035402738,0.4891210832583312,0.02065713272123089,0.9093106883719171,0.6058363239114171,0.6527285670166261,0.01578101206941697,0.9675499534395062,0.8458272735085914,0.9016275731255404,0.3839928148993177,0.882619760695723,0.129534248151713,0.5315511812916096,0.010641023832411528,0.6024436705576539,0.03123047766753194,0.5228074975766215,0.12102171791369007,0.9223380158219051,0.7340757377411284,0.9771094716379392,0.9514580261920609,0.953263428194064,0.8632890083436373,0.5839078708219063,0.08875470530604535,0.3919460871636597,0.009967172031642973,0.6055795550972857,0.2781659493912759,0.5858254296127706,0.08194980762202746,0.7769705625893485,0.3681547249497314,0.7049960348929422,0.8639769699397963,0.2971203385603545,0.958611591581044,0.5169915787373112,0.979071770321157,0.8648264262029959,0.9853688522993472,0.6911431833196913,0.8555302862129411,0.5605368073163259,0.8858055594099115,0.5426539684064242,0.9613214087503085,0.8314667262687996,0.8872900388014959,0.3555978836896363,0.5726556795890182,0.044457881725130266,0.5166391447373619,0.11370014988273457,0.9038665082774325,0.6970147890961977,0.9762860291544087,0.9487112133330455,0.949591048618675,0.8522960451257897,0.6006915322316433,0.08838351431606442,0.6066381660234552,0.26453788328062466,0.6126767705205302,0.09683258111325023,0.8197513347792829,0.4853919356483985
6,3.4334212516788702,0.6403184114675127,0.836927161156613,0.31624436845385934,0.8180860687872493,0.02546315267358296,0.9737318231596812,0.6809215766348009,0.9649730437072515,0.8161200677085396,0.8276229790378234,0.45451138044025674,0.9784878738251246,0.6725181575225028,0.5882443998428211,0.00851068382139562,0.8577430896795042,0.04411754499317617,0.8982485309670555,0.6458919821480988,0.9504757350905094,0.5893965898031273,0.4886635596710377,0.020624273533447826,0.9201505522188733,0.66556570244093,0.6888997193817742,0.020385728235628182,0.9573913324933963,0.8058966096060174,0.8379920493864753,0.2744143207820724,0.881895982625802,0.15407620924281532,0.5073938022104797,0.009893614783180328,0.7016826039358832,0.04950126233008685,0.5516901066449654,0.1208788578685777,0.9032354794305731,0.6690458269272778,0.9728755107613077,0.9491976434648951,0.9112538890174964,0.7812026650507339,0.5279572861674755,0.06522325014107648,0.4294283833398927,0.01128710673601491,0.5921998636727975,0.27121374780847024,0.5502976630683765,0.07587450666633568,0.7737518649723168,0.3537683396083423,0.6422592298880959,0.8133934599168333,0.23254573274202184,0.9694600547054112,0.6106325952677519,0.9613453499357049,0.8161705563143092,0.9772605967778469,0.650812326176555,0.8982254261809441,0.6542580512610131,0.9006821081558545,0.6100792798753477,0.9498017978673214,0.7772809567095709,0.8158378787246398,0.26706922616050627,0.6746096464606479,0.054765945719811596,0.5505507283252706,0.11695342131576311,0.8863344949794929,0.6514131020114227,0.9710133698186256,0.9439984392120125,0.9064544212298247,0.7674388374932777,0.5470949175698167,0.06936579530779283,0.5821885851211793,0.25021800252299375,0.570970297855158,0.08657997857804527,0.8109514458515357,0.47247389041676224
7,3.3865526087793083,0.6322112560216191,0.7899625144752858,0.24993336741777894,0.7530775736562202,0.021229557206812997,0.9495364414968733,0.47548847370291153,0.9830613861926201,0.9012330876340843,0.8646664369192161,0.40911427921881516,0.9863327386462349,0.713322747029756,0.5571217575803281,0.008043411620625038,0.7590617863430362,0.01783073516123219,0.8024351095722386,0.3962517353089437,0.9597533121650464,0.5672766533690544,0.4883370181012479,0.018285552284055512,0.8350532802069076,0.3837225584012393,0.6137793487986679,0.03000914267153247,0.9706976685204491,0.8678243982327074,0.9324634339890968,0.43908273388376956,0.805568012546074,0.10440204085751181,0.5089947197243595,0.009415433420261732,0.5702922174967548,0.07422917053695378,0.5620172102690726,0.1232586202409274,0.9009845666973029,0.678515628912997,0.9760384509240844,0.9514174669158022,0.945407559477013,0.8645183788003374,0.5145846289282491,0.07009969880339723,0.45650714237628687,0.012230976440932833,0.5981686220373009,0.2671891642482106,0.5447816356426274,0.06772718842518907,0.7549494066454844,0.3354481615671477,0.6754780156842013,0.7632479587571086,0.19040876687955122,0.9425611225916027,0.403193035500354,0.9815154990804782,0.8983970445087536,0.9805835428320817,0.6468790628785748,0.8006044994909559,0.41122716671330084,0.8173134651635806,0.35196704953031954,0.963995582335161,0.8491020138878833,0.9192033355080915,0.4327277611414957,0.5431429727566217,0.05087744485179626,0.5531489973180689,0.1153101961668827,0.8838153038905764,0.6562696245476802,0.9755030988706126,0.9489706918436258,0.9383467670066343,0.8436813013189017,0.5367828516715374,0.07102691079657356,0.5911806254657209,0.25207146495825056,0.5632362424713389,0.0826578596720064,0.7971363665756357,0.45029796219974694
8,3.3356423404883198,0.7306426976853484,0.9139595376154793,0.45825352221724547,0.8371218425886562,0.02849319353757624,0.960450987003031,0.6212492482385976,0.9837327675537189,0.8966277035591264,0.8898655383860506,0.40794453844777534,0.9895798692109251,0.7228135346153586,0.39471760366092,0.0044084831375361365,0.8640590642830377,0.051627380701098576,0.8770395658928137,0.5918088737944633,0.9732789943858912,0.5562640348072853,0.5022391023189805,0.023255806983892475,0.9361022886196078,0.7134177801103295,0.7460985790362306,0.028071024696789376,0.9692472120570658,0.8477613734593741,0.9181665650469497,0.4018694882943244,0.915869877276792,0.19494285567021347,0.5619353521385482,0.012607410379166375,0.7192441000790559,0.09908208580148077,0.6322613951371722,0.14406345446709246,0.930486289232682,0.7546137234893101,0.9837618853076511,0.9638406831946627,0.9526544832953934,0.8795579488081358,0.6508965524326306,0.09791856057717763,0.3857517231290262,0.010064540531307852,0.6332191662490277,0.28843600343796716,0.6337099857606596,0.09214852109062562,0.7982865510653077,0.3804285297710735,0.7316063089258965,0.894172368791304,0.37618743477484246,0.9568319817359946,0.5293081971991717,0.982587304201777,0.8874430290176477,0.9858775488395987,0.6886874771195965,0.8766144354202866,0.5940842928626648,0.9178478057810824,0.641460571896638,0.9620801394636751,0.8222130897471898,0.9025448333380929,0.3997333559525582,0.6943468010802347,0.08246352815887484,0.6149705137707763,0.13047417322027033,0.9107747372925011,0.7108061769316424,0.9820829639082834,0.9587556646312515,0.9427055352015051,0.8579201977854809,0.6560720592475134,0.10538062475113186,0.6247211804756176,0.26791336782598374,0.6455792087785877,0.10302015929468707,0.8468630885829269,0.509740708823102
9,3.2851299690508338,0.6572670661496887,0.8264235193038855,0.25577118034312873,0.7832763983251382,0.025402059982544595,0.9548033904039264,0.5991112624737449,0.9815480759006722,0.8838395174542919,0.7864764697121873,0.31569549766742233,0.9761831413689126,0.5906804852228587,0.5356091921681666,0.006320517606311453,0.8010373545288714,0.025941986793184362,0.8344421512023759,0.4923992793373497,0.9701921993045465,0.6827049556795511,0.4799885003776961,0.02165108232833798,0.8979606275655095,0.560645945934725,0.6227847223958782,0.01588907428709811,0.9766144890463007,0.8868564217009168,0.8858011762118887,0.24040420939428744,0.8493259065476081,0.09717501811295653,0.4987878713746656,0.010761532150209509,0.6438075738425452,0.105267566911762,0.5452239687640751,0.1200794342417876,0.9138401208698324,0.6866417063230426,0.9849639857666851,0.9595452982967738,0.9445374602778591,0.8248762914835661,0.5659379486896201,0.08360525052413195,0.42289803503738843,0.012613582956053554,0.5732260172221824,0.2344833483213216,0.5176412137081051,0.05357219945060408,0.7605127503814048,0.3381513348068447,0.7228830733985373,0.8048559057953812,0.189825713450682,0.9460187018410752,0.48738454547865123,0.9781929359113523,0.8745630004272477,0.9714068297797854,0.5602783456296584,0.8329627900212039,0.4906721240082417,0.8773438901316837,0.5037522274956421,0.966822151489497,0.853829129257277,0.8524192172481033,0.20806380907946662,0.6143883215017726,0.07817288636489397,0.5375921271807482,0.10773399749602036,0.8977363382248208,0.636113105125651,0.9829409473161896,0.9531471339287502,0.9349111793246856,0.7969261597785003,0.5790798190205355,0.07951665714792985,0.564806144314561,0.21686131762420294,0.5382930855930335,0.057063342374724955,0.8049856490434018,0.44336896841672124
10,3.2486326653589557,0.7381330043473152,0.8485262165684276,0.3299862559278057,0.7851878028066771,0.025716869149201713,0.9112810994393539,0.6097891723486921,0.9739135053089596,0.8583560673623464,0.6929583155866618,0.18160789565906355,0.9714234694278616,0.5723089351177624,0.5640589711666824,0.010453632430205858,0.7954925934338256,0.03677775020406611,0.864197622016387,0.5656206808182003,0.9476451710330599,0.5059602918018321,0.5293646610922763,0.026063106943939325,0.8732268097232467,0.5373326390290827,0.6485364300390849,0.02472048242289898,0.9808357514658845,0.9139102858916381,0.8202277758621785,0.21390407883842474,0.8637856091447386,0.1958484383755445,0.5336716821345309,0.01319818121600035,0.6713830349212856,0.10398436107343142,0.5750415847159172,0.13655090352565477,0.9014718655163904,0.7084543454176649,0.977103047715869,0.9543272588615408,0.9173301765052324,0.8204366944499909,0.5646092889751071,0.10703332925266434,0.49159139574745736,0.01500979969112619,0.6494107642386666,0.30451993069203,0.6189384887018244,0.08991496193372331,0.7681235820495226,0.3408379364782512,0.7501982553528945,0.808922324498273,0.2323558189294012,0.8963488528462932,0.49138274532095494,0.9709511048848803,0.8504343316905639,0.9661196416416539,0.5549300797883748,0.8658730681200578,0.561557788115443,0.8502864820411464,0.4735014115533637,0.9710686703908934,0.8742873600559216,0.7798027926239814,0.19984965022042273,0.6392719851511713,0.07301345299091086,0.5614175278505198,0.1179794698313621,0.8810911122808895,0.6604936231253876,0.9753139503785119,0.9475304773654021,0.9066821665511438,0.8019214945075724,0.574012910021361,0.09826630764085022,0.6343207524551239,0.27418052163906365,0.6315820664111824,0.09507986118254054,0.8070665880091927,0.456672774622346
11,3.2109836729751353,0.7063506050992833,0.8374168333633281,0.3090435556993273,0.8044645936775571,0.02831920377506633,0.9444959555560203,0.6255506105949045,0.9844930589883139,0.9129490269669627,0.8525518694439728,0.33890978122181287,0.9879436779184955,0.7060458726952715,0.5022566157481951,0.0057996385448444805,0.8208407276738054,0.038254315033062286,0.8879240591349654,0.6069509041621517,0.9759538747399401,0.6715230183364695,0.5579529454333787,0.030292096059088076,0.8883293089996158,0.56637137892412,0.7217507876084213,0.0280961519312874,0.9717688285500231,0.8663477614165842,0.9400317185500723,0.35599018853049536,0.8883857565308998,0.1800410410106548,0.576686153858039,0.018172788501458956,0.7566409948125591,0.10752587924847576,0.6164401019340626,0.1370545316454629,0.913828457947329,0.6837063746100971,0.9832339120000091,0.9606994578532285,0.9589020736015761,0.8793306244712724,0.6264139763575348,0.11331069378900999,0.4368886193218302,0.010923494588814876,0.6143279546582479,0.2898974730029371,0.5945255475256129,0.07842006196728937,0.7940172463051464,0.36728945863769813,0.7035862190501366,0.798072703102365,0.23928126039884148,0.9387450953976728,0.4954122390857462,0.9806302541182239,0.901736592354144,0.9860011053296814,0.7086921374240562,0.8851462066642681,0.5982535096276705,0.866104504181318,0.4931585466012519,0.9617277887974167,0.8272368501285525,0.9177754638935203,0.3223760756889539,0.724251180956905,0.07532147896793989,0.5974724734612084,0.12570085152048607,0.8932575026108888,0.6379767049947819,0.9807339425872623,0.9532042578384552,0.951620200019804,0.8562331354295931,0.6354032886891111,0.09889406961415531,0.6000027245098267,0.24926420655318976,0.6094216482623223,0.08475129571606066,0.8328978801613621,0.4792183257464924
12,3.179785557547323,0.648043708142404,0.8294498067366615,0.3115004965383903,0.7395255961882454,0.01841962990134201,0.9066000790512129,0.4622542241846941,0.9674005725658993,0.8440436722784617,0.7872248246676816,0.30963456515395144,0.9735865386579443,0.6318333356667003,0.5433565558726476,0.012774045465855737,0.7567711242461308,0.020305429669155255,0.8473613509700118,0.43976366715887905,0.9538774201808963,0.5213059803849459,0.5427027512567245,0.026724297079810354,0.8335876665549098,0.4270957213439616,0.6580962616859205,0.016776175944345283,0.9786041861566139,0.910368158934824,0.8706494996515389,0.2826500940971721,0.8689655215815001,0.1328017625542782,0.5583013804339242,0.015406929686695861,0.6473659585785534,0.09342312458241434,0.6021259059259122,0.14412990690889202,0.8946149202781324,0.6237659085734579,0.9762916981842348,0.951537048540076,0.9254113411098943,0.8138949785844078,0.6158664332020023,0.09855241679781071,0.4910139986432463,0.022342275010271785,0.5860782097487944,0.254388168824769,0.552031736726142,0.0709409452550175,0.765648513032899,0.32525511381233,0.6619966516873733,0.788670711131852,0.21641858034017752,0.8955415931928571,0.35483016375395876,0.9628035543765954,0.8335543488093927,0.9669208108645114,0.5967660325146026,0.8442116322328285,0.4485635298766335,0.8061328816404438,0.36795326070717027,0.9667553777178634,0.8682887957889106,0.8267911184921091,0.23768370471884812,0.6100304365801951,0.05861271316098206,0.5772325951042508,0.1243006381138711,0.8722584259225374,0.5721084547318922,0.974168438903618,0.9463061063383528,0.9140041588276065,0.7906911070685906,0.6164625296499665,0.09563110447376806,0.5685021462326159,0.2187798974086879,0.567789136205421,0.0793706398897813,0.7973922216922045,0.42561619235597625
13,3.1319037431724315,0.7428915521090353,0.9041400087148632,0.41811169893037414,0.8240896247603616,0.031988350126110066,0.950106466810858,0.6912727800279439,0.9872122614445651,0.9215584472042364,0.8398910792038746,0.35097165658511886,0.9858237222637137,0.6897406095225973,0.5507697749176288,0.012628967280565853,0.8552310392612965,0.06647944320238912,0.8516189241931023,0.6074222110083651,0.9672554211316926,0.6679926082305477,0.537872402403553,0.03121268780341491,0.9217676723925972,0.6805298706962389,0.7185847407508767,0.034006395765149515,0.9768462393404317,0.894354522122347,0.8646071606429784,0.16105610204342846,0.9269937565409689,0.2217786084703623,0.5309906643456287,0.012973187975725192,0.6253784542272194,0.05565577001545387,0.5609987967989556,0.12687189815314062,0.9401802599385203,0.770730963789057,0.983578841995246,0.9601764257331595,0.9369586269232943,0.8417133954265166,0.5695119770869279,0.1313700969924808,0.5032759517989933,0.01686634559019955,0.6621014004223452,0.33402815838157907,0.5690365896325008,0.07519008910216363,0.7901854560747305,0.3771800496222564,0.7721385144065557,0.8661270636789039,0.29360284810633824,0.9379268597794944,0.560927260303349,0.9841363029977706,0.9075701719224722,0.98544343144201,0.6529906100172667,0.849556710579698,0.5940043221200036,0.8960384931687655,0.5886775003404457,0.9637462610350066,0.8415870952913109,0.8120628058482693,0.14685126790087621,0.5820982767265722,0.051927888840792184,0.5401839264294283,0.10981116051431808,0.9138955588146705,0.6877253957528106,0.979992096955479,0.9445392505872662,0.9304879294979701,0.8222487450379226,0.5765999105586643,0.10246423300676664,0.6406889536111334,0.2837809003759255,0.581686575628494,0.08355354182055634,0.8150419472970206,0.4795163869961513
14,3.097224409747468,0.6954823170015274,0.8782416040556518,0.37861907860297883,0.7948722897799738,0.02638695107969636,0.9389509661695006,0.6582238259127708,0.9784324325746677,0.8813372235045618,0.8648854854050414,0.40065255287601964,0.9910281271994033,0.7442815387497588,0.6420662400258261,0.011949962011920823,0.8320708270289953,0.0344600810067784,0.8644474554658998,0.5515715201567325,0.9773420480470694,0.7030635957410937,0.5797263587227502,0.02987372948451985,0.8949682217636403,0.4894394007902194,0.6481155090471993,0.015253418842981483,0.9834686017265416,0.9244579842174045,0.9041229872755773,0.33602075020200595,0.884538486856389,0.13247264061290728,0.5639805308344407,0.01479452763726085,0.6354279008351307,0.10462678364812683,0.6243662655409892,0.15441401824889567,0.9176857699649312,0.7381017073202739,0.9722557585520807,0.9452405338352625,0.931493423554371,0.8226723738109376,0.5917503334490714,0.10910193581804042,0.5635755315678272,0.027421947920884992,0.6214350830864848,0.27786069754211684,0.6296077471848667,0.09228152724938408,0.7964944609890124,0.36940693487782816,0.7225306194378359,0.8393132785296334,0.27530204072814235,0.929856969647398,0.552426134933628,0.9745766647779521,0.8665100617520044,0.9856830308518331,0.6743195006112682,0.859830752390211,0.5374509946971181,0.8729158981457352,0.4247783717127719,0.9705115793776812,0.8762204004959304,0.8486584230878784,0.26556335638757655,0.5838426622331301,0.07271489711749866,0.5915041098185232,0.12151307638426752,0.8877417711256802,0.6495287764612162,0.9691622600815414,0.9382795852711259,0.9205286067927518,0.7933075950659265,0.5879735804054673,0.09132554154456696,0.6003441055911029,0.233002718329252,0.6327567257490864,0.10063574091537635,0.8159500261628503,0.46705492452547936
15,3.0673642471693556,0.7334332040888262,0.8740175434496107,0.4306429982333031,0.8050786044021272,0.03846061753339823,0.9356779438318059,0.5727275647719337,0.9826635569547979,0.9186593731993944,0.8714228555785463,0.41521332201420996,0.989488968008513,0.728405467505132,0.5640555900284647,0.0322626978308606,0.8410640647426063,0.057702050356368204,0.8796684538464812,0.626138093570842,0.9772532172079427,0.6411167753951041,0.5987700073001795,0.054387009986607164,0.9110696261209715,0.609871199264859,0.7181672470408912,0.03251057595660786,0.9843978720829143,0.9253514021138907,0.896624300632839,0.43277852606379424,0.8776138545508781,0.1872666935383182,0.5966972740678939,0.022178085454411883,0.7018421697947472,0.10869590825039518,0.6674080615285534,0.17660782574793385,0.93510458737496,0.814721240619653,0.9679838984585638,0.9358839039220468,0.963708015919661,0.9143530483103088,0.621029137694979,0.1421545820096981,0.5287596513350042,0.04210312594643237,0.6572274899917913,0.3346884987363863,0.657875987273834,0.12579748228143228,0.8078719222776752,0.39694915648512785,0.7369812318265927,0.8253825412504183,0.32547947979291625,0.9170406513648688,0.4442849665817538,0.9776148414493762,0.9044923194455845,0.9861254966609136,0.6875398529123957,0.8697704325727015,0.5933538754234616,0.8823458614936325,0.5040535030843252,0.9683509412635931,0.8574561595256772,0.8303785543934878,0.3285776205610083,0.6690105472426745,0.0752654864178038,0.6319291453379122,0.13713782004337494,0.8979947528874601,0.6907525790412459,0.9652065670086161,0.9310798832824732,0.95428933557778,0.895746705072174,0.6190059152502392,0.11460474656989267,0.6359745980326315,0.28770994704119096,0.6502524926513797,0.12900068788279073,0.8300420421523553,0.49415847704237925
16,3.0212184391743344,0.7297908588884973,0.8532590694122522,0.3564929324148931,0.8165207111745691,0.03388517350709226,0.930080878919339,0.6446981351795609,0.972144128335569,0.8554091122696003,0.7940930203779752,0.3292713919510252,0.9817111333394987,0.6774645134820145,0.5909431361644633,0.017202638271009967,0.8224023770300558,0.03485255245098898,0.8768712621960416,0.5834815344085549,0.9759958396535965,0.7373845504678951,0.564986542752231,0.047460754621970386,0.9200570869608719,0.6449037195766592,0.6958980386173432,0.022896932747962714,0.9863242272080004,0.9397121070982517,0.9201679117537049,0.35493111503131014,0.8838114363354087,0.17137986962342788,0.5649082700713135,0.029912822699766885,0.7649565161430426,0.1600716336999825,0.6056667180752422,0.14853638495720198,0.9276725739551788,0.7598132629204318,0.9769815653871964,0.9508190775382415,0.9375004341981477,0.8255858284852402,0.5783732718254481,0.10301385615099078,0.4636071201089546,0.02941236019554324,0.623865768451374,0.295897567753444,0.574018495713014,0.07864135449548054,0.7924160590061474,0.3781973531537901,0.7272006344171292,0.8061435881639758,0.23721128462487054,0.9098503419689619,0.5077161987273681,0.9674857433892485,0.837942658915396,0.9781811482850414,0.6266791169158933,0.8650903649042767,0.551265626309627,0.8878545913273612,0.5338623349856104,0.9707605100451677,0.8790246542151531,0.8597420019052934,0.2996410550728609,0.7246729826968921,0.09250139722493524,0.5722688197448295,0.11166603216850597,0.8883018103101257,0.6584104037904006,0.973092949779119,0.9427509595534143,0.928144410337657,0.8048726957011977,0.5743094096871847,0.09649223819203404,0.6005743266714527,0.24423791588601707,0.5811266214949593,0.07608956815463508,0.8179749762944717,0.46877275877736996
17,2.9921603835633324,0.7137234167547879,0.7985898859786331,0.23259865369357297,0.7972126494982633,0.034636536470143225,0.9229270761692134,0.6470427804864903,0.9548781249802829,0.8184045901112841,0.717749393495509,0.2005466266611723,0.9673497449409383,0.5291417218205047,0.5867280328552551,0.008828291068973818,0.80271262558595,0.030236038820179632,0.8796828411904595,0.5773553804705941,0.9413188837210442,0.6283595526809974,0.5676928362580148,0.0443528150141729,0.8646245963729391,0.45948654872318584,0.63628186626416,0.014950786755496902,0.9861152346449543,0.9374338846892504,0.8797747224037655,0.2603218126871104,0.8534425241170203,0.1605095676066019,0.5546950375795282,0.016304707727270384,0.777350091459348,0.1330317380979261,0.5702366731780858,0.12967028897354435,0.9182570574809719,0.6748855859147392,0.96679220321462,0.9197128692356002,0.9194595519983332,0.8091314243198628,0.5632360447249353,0.09004709033957063,0.4970206762537026,0.02978147326095725,0.6001067714323991,0.27310905997422363,0.5028863910044319,0.055782388950371506,0.7702739052616446,0.3352177774828383,0.7143360648515288,0.7550551954857005,0.14354440426687587,0.9111647513357598,0.513054195065202,0.9483803019684189,0.7990559647361634,0.9648657102355422,0.49505176723152744,0.8690578473173755,0.546343625671736,0.8351092794460557,0.3704123422434501,0.96851735078003,0.8686392917766632,0.8183946842170393,0.17639350053801367,0.7390080841668206,0.09830083541866014,0.5402414627034562,0.10300578497158293,0.878085141719893,0.5785961383208424,0.9624263120644835,0.8958840141039996,0.9046950391127834,0.7788780448058517,0.5530607447547407,0.07303395056011477,0.5730005844073578,0.2190210218667651,0.5112043711264006,0.0641010984384179,0.7957666788026161,0.42020724875099164
18,2.9457114983803936,0.70617436258959,0.9060725101372088,0.4020591306532693,0.8099845488381047,0.030244239121770385,0.9170035639447451,0.6657833432461469,0.9736410544305122,0.8706038140914156,0.7980222773488198,0.25146912599295984,0.9862546607353152,0.6979896784435263,0.5687655155655108,0.015530744296662617,0.825933211429824,0.048844779405037585,0.8658942083160206,0.565378267668103,0.9768429489143032,0.7028556021520861,0.5979067236505261,0.05901204543165492,0.9111346033473267,0.665048956073785,0.6958188937927229,0.026489993360336764,0.9860247449172623,0.9326936942829299,0.94396035959003,0.372817229796152,0.918798406316334,0.23729536969794995,0.5981164313010517,0.0333579898041818,0.7055036445472499,0.13886741414054785,0.5793451499657403,0.151782266330166,0.9354611205676453,0.7485537235662045,0.9780330066020465,0.9535273073195092,0.9044445140855912,0.7784666676058973,0.5344213905022278,0.13181366600915234,0.4675319316133977,0.027104010289603415,0.6312632550995461,0.32544998914962076,0.5434754044284817,0.0720394156263236,0.7907559261533671,0.3809645562905766,0.7160102211648603,0.8588297144286431,0.25584850131255493,0.8855396325547716,0.5261358981039127,0.9691457494047018,0.8496399823636195,0.9796755139421255,0.6360254108825703,0.851931458928175,0.5277717571713525,0.8685669298533577,0.545543505779444,0.9680977624658452,0.8562225035807437,0.8896573767142697,0.28589296599803893,0.6492298489606699,0.07589083556290684,0.5430602462572284,0.1145096563334903,0.8954214439130398,0.6459829061390139,0.974728273722248,0.9456701561612717,0.8896327161105061,0.7527484562899044,0.5386925920950896,0.10418410440100682,0.5952338446784193,0.24908764794802177,0.5471899790608263,0.06730436750808935,0.8065395676931197,0.46490366597099636
19,2.917111444663755,0.7352250029373751,0.8715797248258031,0.3783659141826353,0.8186710647164045,0.03799295525480022,0.9607670424504349,0.7303177200833122,0.9688502796086063,0.8627162839635628,0.7272710013871183,0.2421605789346289,0.9707817130090304,0.601374518409042,0.5884891648485698,0.02339511316497715,0.8508402261254128,0.0631631955997704,0.8641475926961091,0.559393792289947,0.9532497460663254,0.5967037643370418,0.5689414283028237,0.0625245966771395,0.9180766507530261,0.6509249171081934,0.6715134356431987,0.0259032958183969,0.9850908702686032,0.9267505117017429,0.8382715723496639,0.2421491636308006,0.8679462789399524,0.1827335006495813,0.5617677013483309,0.04457126435384697,0.7138079825426105,0.16439911434447355,0.6440215521546725,0.16394585349025168,0.9336622595796152,0.7562960338475766,0.9739132530585093,0.9473474083492277,0.9009085949951161,0.7848419272650441,0.6075018651610447,0.11731176524854782,0.4713960905296518,0.02048573313085998,0.6329912205991985,0.32383237986043295,0.6018981784439864,0.08298486841790134,0.7871675573232237,0.3689456219274513,0.7336329191999295,0.8211406874046832,0.2555983311475437,0.9520936727923576,0.6025172594011402,0.9659390340762729,0.8420956602816807,0.9628217408218956,0.5639479407181934,0.850238217350368,0.5253986781964148,0.8835739015368164,0.5237434705135074,0.9651116686958405,0.8421919608707729,0.753020314585745,0.1606527180316395,0.6606734753120629,0.09296367998577093,0.594102428198681,0.12270885030437859,0.8914783683281584,0.626306437220412,0.9681344343131446,0.9324305355645269,0.8884291910090106,0.763903760007822,0.6007906384735345,0.0969425494453277,0.5972481088496165,0.24421131673223068,0.5936355302096811,0.08571030747439057,0.8092769632473669,0.45508271599348454
20,2.8674908452442427,0.7576959229232758,0.8572554344949348,0.387985821938181,0.8121970679891231,0.03728110400844507,0.9343122602587707,0.655461744120031,0.9737322542209805,0.8728242664243444,0.770834481471036,0.284493099849107,0.9833727284070265,0.7032634592035981,0.5953337646489651,0.03319236245063001,0.8322313998458677,0.05398723805438564,0.8473903726509981,0.5472319159017323,0.9450978701427909,0.5809167421171757,0.6214541795113371,0.07152504318846631,0.9003243219160223,0.5971264818256994,0.6860763372460623,0.04010547645122971,0.9900101637279743,0.9541746855631119,0.9376807560224119,0.43014209125434044,0.8654171777249291,0.2216617792596822,0.5878823832871529,0.06745518353612703,0.6477204703019419,0.13238539204921906,0.6130393667070138,0.17073288413750315,0.9337951229665753,0.7751020157552377,0.9825498316160681,0.9636177419299329,0.9276404042616043,0.8097545270251012,0.5621421015262195,0.13409391710363797,0.5085517236468713,0.02498132271116211,0.6505568958993697,0.3348547006462762,0.5876619798433214,0.10008479125450864,0.790548494243668,0.3840167610676487,0.7433254031192176,0.7957460162326722,0.23407337537634804,0.9148367377869088,0.5264283383691897,0.9700584354562686,0.8492323301212561,0.9792853648450619,0.6622151285314414,0.8318497822209635,0.4951891336543147,0.8611033788974587,0.4729203264153575,0.9686189152736298,0.8668768763174116,0.8571798876594549,0.3121506327174155,0.5855333878728701,0.0690904328294136,0.56153348937105,0.11892438869794703,0.8838795556844189,0.6282061760696606,0.9769222500371934,0.953746636637503,0.9126583622140806,0.7816422739319261,0.5560085411561193,0.10225068298949833,0.6116782708081032,0.2436746982050249,0.5807131886930328,0.09592303134124047,0.8029753477630804,0.4632840288878093
21,2.8313090063376793,0.7324051227822818,0.8406493356097119,0.3589906796379664,0.8210076644180097,0.04398187278595413,0.9161390471324181,0.6252881668182585,0.9363406454245481,0.7834469287880523,0.6756933612579609,0.16142379251712236,0.9588770851544558,0.5143533459190752,0.5651703365981897,0.02120967318394777,0.8287845250889088,0.05507855382008668,0.8845681516090498,0.6296973783925734,0.9487124429338436,0.6473185936333291,0.5726754561470327,0.07544190587999951,0.9103804414414332,0.6398713153724549,0.653790960937491,0.02954527596745739,0.9888937602081501,0.9486874862613284,0.9092502303236221,0.3617884168556538,0.8759183473115242,0.2356284253578434,0.5599789613011548,0.043028317277461536,0.7109061612449858,0.11851552942140331,0.5798826435791942,0.16073961562468025,0.9289980377015477,0.7495060329150912,0.9710100177362277,0.9403902431709428,0.9116553846314426,0.7866854320287946,0.563098562598175,0.13652625155312445,0.4904979014333948,0.033379349717479946,0.6216298679434442,0.32829271856187475,0.5391454410763263,0.07496229639018429,0.7755251834939323,0.3655299076096977,0.7264076130055511,0.7902997103872658,0.21950993895913548,0.8963087078793595,0.4921186442391173,0.9336722378728373,0.7639502033551807,0.9570468663124343,0.49723934570353967,0.866488820165803,0.5737868682478551,0.877399308246554,0.5003011511863605,0.9656276944498619,0.8512678929580972,0.8248671530217058,0.2400889600879818,0.6472409152086137,0.06229998724721368,0.5308370228983506,0.10640256355905106,0.8786530628330467,0.6094244108549145,0.9659791132594857,0.9287093959391461,0.899570927814635,0.7680966361777666,0.5590964991743876,0.08545070497811967,0.5797321670614936,0.23528570032226856,0.538458972005093,0.07288284147693899,0.794454948661933,0.43792595283079294
22,2.800468321230896,0.7834567030901187,0.8537876414981271,0.3891815652844438,0.7594283671701412,0.03904348247456321,0.8862732432893206,0.5207609010009776,0.9617915764699904,0.8664906435389098,0.7185113552317667,0.2640111369114475,0.966495121883337,0.5987092857275533,0.7597871823402269,0.06381929010391986,0.8202682554777039,0.06408663122792504,0.8547502488961992,0.5892876215182143,0.9701132470673571,0.7366415761618016,0.5817137735888794,0.0693661856772129,0.873575319957756,0.538919248633984,0.6716575084193719,0.029392905331829516,0.9904981884911989,0.9537636286955353,0.8947212111970393,0.26725469309051125,0.8879430945933444,0.26164122602758133,0.5644335903299239,0.026801703643016928,0.6165848453202419,0.0821498897368578,0.5987207709947122,0.1580032812103998,0.9243347081544634,0.7765279837937327,0.9699970407164384,0.9396673323288276,0.9076746644864073,0.7740058191039259,0.5688731949120551,0.14060969688895458,0.5102380856826232,0.05097739798154382,0.6077956170687051,0.313004654480183,0.4879674245597213,0.0618852030512099,0.7772282799152712,0.36830780706250243,0.7333685787294034,0.7987087278694067,0.25450830275906194,0.8619286784818165,0.4080243700733899,0.9567189261879834,0.8386299974780927,0.9607705361182891,0.562201018671175,0.8367036903786829,0.5386496267390256,0.8337909628707092,0.4145872971132668,0.9642410705522639,0.8365910783994548,0.8002187938658636,0.18332348855393926,0.5558546433378198,0.054053794683383456,0.5443964706607476,0.10832719661376053,0.874309275622602,0.6257737377515754,0.9650952235168464,0.9261058184667397,0.8957250420833746,0.7547278116447643,0.5557611850813162,0.09175965570387563,0.5639119942458353,0.21320436722889333,0.48838102950056134,0.05839304392120431,0.7785322656483824,0.42930378786260015
23,2.75446871976681,0.7363412054987662,0.8096601933533669,0.31260700784058704,0.7901258953853065,0.04333215210610599,0.9164708231800999,0.6154923568532481,0.960277412077267,0.8490416184683275,0.699855298676482,0.20300330941815792,0.9584630977084125,0.5628988179708064,0.6191851956716139,0.04266983218214291,0.8386131060118638,0.07958580285536468,0.8705335754253157,0.5987994528856574,0.9473114427598578,0.5993592904741232,0.6139752890066708,0.07938928452631785,0.8829971782889193,0.5725470964338362,0.6820864733688137,0.03599155062784133,0.9940157276910335,0.9731127662913654,0.8580828448555636,0.29535719454138193,0.8603253697397709,0.23318904280166458,0.5755424267551134,0.049482597692262854,0.6868236878084567,0.1289985501411152,0.5488029939536045,0.1563747903288223,0.9394078144054251,0.7625362774801999,0.9688226530379825,0.9365193526647637,0.8956572543352632,0.7743455589555126,0.5365196910451633,0.12543216414418953,0.4898592691654411,0.0397451255622833,0.6062469320435051,0.3036013919979873,0.5175110284049546,0.08322128406377029,0.7718143336213564,0.36371667958876286,0.7306370605339677,0.7460819484764935,0.1785566824516729,0.8849848200904058,0.4430711102677992,0.9564345396902815,0.8280026767462554,0.9553284849469792,0.5145377812937176,0.8526392982080115,0.5364430084399134,0.83821303231003,0.43070602892055565,0.9686368355472602,0.8640409226242028,0.7605104165064888,0.18816367600815206,0.6133978131405097,0.07760370736360186,0.496337927279681,0.09995940856534313,0.8872219860771359,0.6170251207783057,0.9648807921619686,0.9261803296999758,0.8842737696801662,0.7543640636246486,0.5270284631488592,0.09182431430648584,0.5589020293511443,0.21265295585650945,0.5109623465064618,0.07469777218003645,0.7753646564451173,0.4273643474454485
24,2.7163748400792045,0.7724415462342851,0.8643990094768199,0.38196034648945654,0.812418282304058,0.06983080939959992,0.9310541617010653,0.6451236228542433,0.9683474105132812,0.8661167382059185,0.6631693942581363,0.2563230583485774,0.9581097515319584,0.6152633621561525,0.7398982983025362,0.045286870868510756,0.8448372773743786,0.09518511543818578,0.8794118016251136,0.6654969448809634,0.963610982799899,0.728368709557343,0.7017515355878041,0.11418077774222789,0.8940089139279626,0.6257579801694071,0.6990233389011855,0.05119812731850576,0.9916432122479186,0.9607696017166621,0.9268810823053716,0.3671474488291562,0.8921558718785064,0.2822795267079093,0.6218963949232443,0.08027606846020721,0.7071376060586836,0.14985858578910283,0.6218279420789465,0.1876739530058142,0.9444592061732774,0.8066313380056487,0.9767321094912319,0.955878525394234,0.8941123985065007,0.7542739346768927,0.5358264229180464,0.14184562501891962,0.5116793776021709,0.04312643139905307,0.6819214114341063,0.3803143700339672,0.548522238026022,0.08105097420247552,0.7990321319980087,0.3981238017949667,0.7527535465679795,0.8048292720773258,0.21335828775327922,0.8994442252592733,0.4756198496668866,0.9662818678047274,0.8446393227132627,0.9536604723308597,0.5320789191931405,0.8587161370821437,0.5981649899063145,0.8443399067960378,0.4684354881661088,0.9613360574753468,0.8240796767138616,0.8165472380203402,0.22351297992750085,0.630316945082205,0.07371362058416864,0.5536875170880264,0.11219081095726198,0.889899308360756,0.6168494377142182,0.9717560754117281,0.944183722570519,0.8824316863055748,0.7343315451472806,0.5248359423119766,0.08913774309809223,0.6242672090257562,0.256321263433571,0.5413874543520725,0.07036387787037529,0.7952335821740094,0.4423113459634901
25,2.6724084707169817,0.8213488426741864,0.8106092008463369,0.30644115856244636,0.7784996731292162,0.046579239981527056,0.8741433974391857,0.5147069332053618,0.9395818597369103,0.8241033069464723,0.7022531138213955,0.2269939791917002,0.9751164407981715,0.6522029860790578,0.7489967942399517,0.05628321844704283,0.8104613825413436,0.07107263956615112,0.8435470905398732,0.5424394268894384,0.9444934375451812,0.5342687334719693,0.6359181009688153,0.11621250934292858,0.8519735902279,0.5431867009824334,0.6963033464361282,0.04366209831575008,0.9929312492789998,0.9695701520998061,0.910313902402177,0.3952129082965442,0.8700583943718876,0.278904884674692,0.6057497193123409,0.0823457928293704,0.6571782168151813,0.13334439393766853,0.6505486259380545,0.20477226650857128,0.9284679696149715,0.7775510778388337,0.9643532236825291,0.9350054379715711,0.8992415452174205,0.7946295624657147,0.5943794017372604,0.16247983560197826,0.5516182330612922,0.04447509328928902,0.6542949833341244,0.3585606546552368,0.5403281347114464,0.08984502781741238,0.7858215779903114,0.37326346226803725,0.7815666578553176,0.7540319685675807,0.18222270493572928,0.851166820229936,0.39700155385203084,0.9367364165299626,0.8065263566578221,0.9735673986739383,0.6003682325017473,0.8270407311864173,0.49168289338432564,0.8078762255441129,0.40659710098814367,0.9656678807855504,0.8446281082332233,0.8174872534999329,0.28084116188887265,0.5889852127481768,0.06161948448606919,0.5633659579646402,0.11742945540738206,0.8794238028617031,0.6263836829393,0.9581936684487931,0.9220788679529854,0.8897706307555204,0.7740129818512461,0.5725605121417432,0.09881750506755402,0.5879948561254473,0.24971859656947282,0.5312174429445624,0.0850188118684469,0.7815679236880011,0.434059218661522
26,2.641351562593451,0.7766419927153096,0.8056794439402302,0.3237017892284558,0.79537851335959,0.04049921251390035,0.9431829949254168,0.7164320913299368,0.9431169355986498,0.8086857410083017,0.6198451075304403,0.18954260208617674,0.948198030105689,0.5559671337223229,0.6509571634778858,0.04620364348872466,0.8426169867149332,0.12282895549332809,0.859870833407321,0.6358051449297665,0.9267856223917429,0.5489203538661546,0.6613772041048476,0.10841856049263962,0.8674513416199442,0.6273963113369015,0.7410494311791005,0.044071792841757454,0.9939725858019757,0.9732974111243626,0.8994704854625668,0.320363951141627,0.8574456128073665,0.27967226638761333,0.6290552714344083,0.09323151842234315,0.7262678445361884,0.1570525270972007,0.6396097434517487,0.19899311674129772,0.9318828733239266,0.7673952904985861,0.9689017836409102,0.9418400824927979,0.9182110861792417,0.8174271562516404,0.6202515667217602,0.1805506414896577,0.5194752741988938,0.034603350426308875,0.6795792677187966,0.39528979496175987,0.5903518946089972,0.10049004185369462,0.7915378807016373,0.38571848004720216,0.7409463388844832,0.7364732556941153,0.165214013423421,0.9187150122329383,0.5685921893911179,0.9410901628502729,0.794013850071835,0.9449049366383395,0.5173025805159697,0.8398409332731157,0.5585974407145571,0.8134007770381175,0.47536209637540605,0.9625936749344396,0.8433306597984248,0.8078729179618194,0.2006632962666688,0.6616160416611687,0.09098582102054537,0.5556992617972574,0.11015979123938552,0.8743620563951999,0.5869161786969934,0.9648982278777101,0.9313544180986725,0.903520744628181,0.7912410452616485,0.6024659230149265,0.10933698343305037,0.6122690807640071,0.26546217956643237,0.574731323118733,0.08846744835228632,0.7946533956175214,0.44356249951415094
27,2.5979925730634332,0.7569322053812713,0.8491424856679677,0.36642104941976894,0.8325417662653308,0.08110495841700469,0.9418714951320092,0.7139509850475414,0.9507961411334439,0.8421860848986797,0.7041857803115549,0.2471595794313818,0.9633040192383971,0.598381895708151,0.5879886093863631,0.04161568388748156,0.8583668214470046,0.13059944056212036,0.8678600390709452,0.6487886381694327,0.9648060638993922,0.6967792693550932,0.685003015732813,0.15350268025656,0.9194808135271311,0.7288594804774224,0.7052394127771353,0.047296331171028716,0.9954050921187019,0.9800488965135721,0.9173018115020635,0.4287125954713539,0.9051380628222498,0.33409868094476025,0.6697131363541162,0.07743602857472877,0.7279073722985129,0.14833051326896768,0.5842952141821051,0.17841522904453655,0.9373482127385321,0.7876748084533844,0.9570683301675724,0.920762347326373,0.9253819088296061,0.8394171215994837,0.6342862784073782,0.15904582182568744,0.5213320072187584,0.049412389749777685,0.648593874028476,0.3736148132481446,0.5807500235041507,0.0926016670067279,0.8013502995292966,0.41023911499342935,0.7209445766146797,0.7810725745657258,0.19540465007203536,0.9283116139539695,0.5592091366864188,0.9488862450084364,0.8293495799150198,0.9622103588202916,0.537802930243035,0.8379940598758392,0.5523889503477346,0.8674829346049324,0.5364216082328026,0.9638217019689548,0.8435868535976557,0.8190251444530117,0.2916092327718678,0.6378759489439563,0.07300922999421514,0.49371328543681336,0.09664222031764037,0.8719883291155631,0.6209070982899877,0.9533870436507768,0.9105280471391759,0.9115522725022279,0.8107355943766811,0.6075001720025686,0.10135130629528111,0.5726730642698246,0.22706960586227654,0.5696713598081722,0.08535977479324428,0.7954478818113165,0.454460988683442
28,2.5753121987561225,0.8582716484549406,0.8581085045927519,0.43242284325816865,0.8306805580065294,0.09787159240283308,0.9282507321201412,0.667556784049259,0.9404023961691856,0.8246735326068302,0.7539542761804174,0.2889545465269433,0.9628390117852574,0.6513800345423905,0.7141890053323491,0.06805950182322672,0.876859706088223,0.1535410756859989,0.9012467969965965,0.698822678032223,0.9612042796860413,0.575107111221918,0.6604902462548202,0.14185384066361859,0.9200219061630406,0.6772592896046927,0.7203961227032928,0.07728427570594663,0.9961964095267225,0.9821800939934568,0.8936887203056934,0.30693741747127407,0.8959522926980918,0.3009790381855735,0.7137986417979116,0.11594328465310885,0.7613894134889727,0.17216160045549367,0.7371438176580604,0.25600132529387004,0.942552185277093,0.8127194800995068,0.9771873520763922,0.9548253883019702,0.9037887816889669,0.7803799006847469,0.66910252028112,0.21601912362817627,0.5643079908652153,0.04388030318408181,0.727172646690571,0.4283577645862704,0.6558514546482183,0.13025126926870187,0.8256452218877569,0.41751627292039534,0.7617411225658648,0.7772240023067117,0.22476977056991398,0.9163688621803738,0.533248299779854,0.9382005082128989,0.812744072160301,0.9553770448738248,0.5895914920605919,0.8686099650175677,0.6043678891362707,0.8753473996635994,0.49251999325487217,0.9620530637368956,0.8253444374458174,0.7809227565391028,0.22137513468795095,0.6773924823406259,0.0757788655054791,0.6360131836593427,0.13785835293480297,0.8829278127929333,0.617023030487237,0.9701921497571038,0.9413926855474244,0.896778532527973,0.772339465919889,0.6355695578387304,0.11847961942830283,0.6503103216692527,0.2794466098898352,0.626742973897738,0.10698488497763779,0.8156269135634172,0.4595790377366363
29,2.5365143943345583,0.8157384561156151,0.8243965467464378,0.3481251784726128,0.8120649660696095,0.10241355009315527,0.9236309506912666,0.6256365889090544,0.9543560149934448,0.8575870449382157,0.7637208151190131,0.29514803242105503,0.9630499207854446,0.5945049699607508,0.6696229575168804,0.04946665147829018,0.8386097918154372,0.11322124055836276,0.8634573177476144,0.624264717198604,0.9770939726131461,0.7494178474131332,0.674909737353397,0.13666611999580097,0.8953704784126433,0.6355476178065982,0.7098493608055788,0.054238028367236006,0.9980201213506835,0.9908607122012756,0.9354886926362197,0.4281111545231439,0.9143254691719376,0.30540719163479607,0.6470183159427156,0.07140799532033844,0.7881918011106883,0.21935766988307026,0.664395294359738,0.22753431308132882,0.9306304946160897,0.7815019399048517,0.9627238049852087,0.9304312559130201,0.8969855999052745,0.7827731453575646,0.6432310086324132,0.19860254366129926,0.6023190067216273,0.06094064995236238,0.700115478868185,0.4148899694952195,0.541508406373191,0.08824056740744413,0.8113494740516879,0.4110114113826378,0.7642964137809498,0.7487933767733135,0.1760153257633677,0.8985751694207819,0.4676038626508429,0.950827988262671,0.8387544219925983,0.9544688768436772,0.5415994905690117,0.8293035280969403,0.5208932669724617,0.853821142476166,0.4695141275378012,0.9650746074214933,0.8498097299777914,0.868282138644137,0.30813505909978733,0.7068323964848389,0.12276385957207156,0.5530358014896808,0.11241760366868465,0.8682320974656783,0.611861209974126,0.9597979692873415,0.9240641054147182,0.8942366570947617,0.7788471093566023,0.6048277844758673,0.11422655251912042,0.6181323621363971,0.26492479849421935,0.5356726557909057,0.08044040037200384,0.8006196595102907,0.4488669327459506
