epoch,train_loss,train_accuracy,train_anterior myocardial infarction_rocauc,train_anterior myocardial infarction_prauc,train_atrial fibrillation_rocauc,train_atrial fibrillation_prauc,train_atrial flutter_rocauc,train_atrial flutter_prauc,train_bundle branch block_rocauc,train_bundle branch block_prauc,train_complete right bundle branch block_rocauc,train_complete right bundle branch block_prauc,train_early repolarization_rocauc,train_early repolarization_prauc,train_left anterior fascicular block_rocauc,train_left anterior fascicular block_prauc,train_left atrial enlargement_rocauc,train_left atrial enlargement_prauc,train_left axis deviation_rocauc,train_left axis deviation_prauc,train_left bundle branch block_rocauc,train_left bundle branch block_prauc,train_low qrs voltages_rocauc,train_low qrs voltages_prauc,train_myocardial ischemia_rocauc,train_myocardial ischemia_prauc,train_nonspecific st t abnormality_rocauc,train_nonspecific st t abnormality_prauc,train_normal ecg_rocauc,train_normal ecg_prauc,train_pacing rhythm_rocauc,train_pacing rhythm_prauc,train_premature ventricular contractions_rocauc,train_premature ventricular contractions_prauc,train_prolonged pr interval_rocauc,train_prolonged pr interval_prauc,train_prolonged qt interval_rocauc,train_prolonged qt interval_prauc,train_qwave abnormal_rocauc,train_qwave abnormal_prauc,train_right axis deviation_rocauc,train_right axis deviation_prauc,train_sinus arrhythmia_rocauc,train_sinus arrhythmia_prauc,train_sinus tachycardia_rocauc,train_sinus tachycardia_prauc,train_st depression_rocauc,train_st depression_prauc,train_st interval abnormal_rocauc,train_st interval abnormal_prauc,train_t wave inversion_rocauc,train_t wave inversion_prauc,train_ventricular ectopics_rocauc,train_ventricular ectopics_prauc,train_mean_rocaucs,train_mean_praucs,valid_accuracy,valid_atrial fibrillation_rocauc,valid_atrial fibrillation_prauc,valid_atrial flutter_rocauc,valid_atrial flutter_prauc,valid_complete right bundle branch block_rocauc,valid_complete right bundle branch block_prauc,valid_left anterior fascicular block_rocauc,valid_left anterior fascicular block_prauc,valid_left axis deviation_rocauc,valid_left axis deviation_prauc,valid_low qrs voltages_rocauc,valid_low qrs voltages_prauc,valid_myocardial ischemia_rocauc,valid_myocardial ischemia_prauc,valid_normal ecg_rocauc,valid_normal ecg_prauc,valid_pacing rhythm_rocauc,valid_pacing rhythm_prauc,valid_qwave abnormal_rocauc,valid_qwave abnormal_prauc,valid_right axis deviation_rocauc,valid_right axis deviation_prauc,valid_sinus arrhythmia_rocauc,valid_sinus arrhythmia_prauc,valid_sinus tachycardia_rocauc,valid_sinus tachycardia_prauc,valid_st depression_rocauc,valid_st depression_prauc,valid_t wave inversion_rocauc,valid_t wave inversion_prauc,valid_ventricular ectopics_rocauc,valid_ventricular ectopics_prauc,valid_mean_rocaucs,valid_mean_praucs
0,4.68695066852276,0.4280049347902714,0.76097845678591,0.023368562013326866,0.8804053905938011,0.11124855836571712,0.9670164548300489,0.8072143225699153,0.9155922417842042,0.5456670993249824,0.9826582237601558,0.6307614141392782,0.805648718838891,0.023260095780010412,0.894508111253439,0.26442007164186343,0.7658281762955188,0.025377361773518948,0.7908993445110661,0.49179617951423554,0.8879921225296699,0.12750020276704688,0.42073950592021336,0.017048847814602443,0.8708056825480226,0.30987005974631465,0.5203017815271761,0.009525233620131413,0.9327529558405854,0.7439888204049393,0.9574236705592287,0.6820516454177502,0.8800755899709048,0.35819410044878297,0.5411442614440928,0.008237647824625082,0.5566250321610666,0.025153950401264467,0.49748962009142156,0.031893374723211486,0.47533270801268085,0.01569546430868045,0.8143775588181976,0.35779400428157476,0.9879460189729098,0.9424846980051473,0.48570965532619775,0.049747360838366485,0.5301251220548978,0.019599222629951046,0.6533818455440218,0.18695967131738275,0.9397785729466134,0.4079529820145282,0.7582898778046515,0.27756965198796724,0.4325491232707728,0.8683840299398595,0.11208225895928914,0.9656675656608671,0.8057671046991947,0.9844440001250321,0.6690838182930139,0.9089375458745306,0.2730912826323137,0.7808967398274853,0.46866064189511397,0.37523601316004224,0.014077803702250792,0.8686583729125943,0.3039259110209496,0.9272895831143666,0.722475963466671,0.9482086083235391,0.6868124612679197,0.5032587595053692,0.031112971618716963,0.506897672552167,0.020660810348027144,0.8055020400593997,0.3623207627609979,0.9882508102647566,0.9301603814330063,0.4887950609281566,0.05037050107266544,0.6569808251660755,0.21099559167856818,0.9409887947394694,0.4481386798396434,0.7823997763846069,0.38185855904302135
1,4.193286895807979,0.5261720126894607,0.7332772759791393,0.021710345687339906,0.8695226848074143,0.1312386066393733,0.9644612913717627,0.82216707408561,0.8896893456699166,0.5201988881909939,0.9795313622821071,0.6542475686188961,0.8307963710746565,0.04098590407843038,0.9145541919002446,0.3631726053547909,0.7659153664128452,0.028654743996943313,0.8534765253287574,0.5586023685259378,0.9443699455387428,0.4310782149827411,0.4803449263576749,0.02883855496369707,0.9291366069769728,0.48104695567012057,0.5667937577584679,0.014736989066747527,0.9539014429379585,0.8215330753904009,0.96780225541042,0.8042986310488193,0.9281904466407582,0.37231250578585784,0.5918732730779214,0.012109910095851155,0.5860503659431353,0.023151930642128477,0.5296716273385519,0.052778931171737306,0.5821341854218942,0.027726265235352245,0.8928854850775667,0.6027026385855409,0.9867504726306433,0.9440103337346707,0.5801303448558323,0.08496894989578947,0.5525022570103935,0.03062594920144704,0.6331166231427676,0.240925010635751,0.9731615845715113,0.6018640492345092,0.7876938467506943,0.33521873078921066,0.5326460481099656,0.8594614634112865,0.1490870706104075,0.9634373582861374,0.8156308239922592,0.9818363781189335,0.6833347117994859,0.9174539095893959,0.38060759397233085,0.8454481890789485,0.54044891832119,0.43292587597605076,0.02847159353046101,0.9251229018179049,0.4526801047437946,0.9471944415248885,0.7965213284842015,0.9614376462847443,0.8058328200692111,0.5407349646907553,0.059541533910005336,0.5965080256821831,0.041872863845728,0.8843319678283214,0.5782618590568395,0.9867812938685722,0.9435653080353592,0.5902823041266299,0.08943173153910772,0.6422804678129145,0.26340619264166054,0.9716792471784377,0.5860266234684534,0.8154322772047565,0.450920067376281
2,4.015289251595095,0.5237339913053696,0.7553757549099165,0.02200598654312691,0.9069649357879783,0.24995713523162613,0.9676337517379444,0.803218577616004,0.9115867277460118,0.5708600118172833,0.9905141452342664,0.7499385927686881,0.8349219368126916,0.02930202195985721,0.9224728207525865,0.4719517748395216,0.7859576813949936,0.024288666086434735,0.8785269690518677,0.5881838294857891,0.9477557245280708,0.5014751628460413,0.5576873975971505,0.03458736145707701,0.9329215297186619,0.5232691203215785,0.599026197935579,0.01628845151424284,0.9620966453722524,0.8426141889926637,0.9758745366532025,0.8669695850986955,0.9456910368797048,0.41078717567156836,0.6803286778306739,0.024693589506545897,0.690183130199065,0.03216551040916299,0.6591459672191038,0.09382702303051095,0.7235290550774616,0.0401544610337312,0.9248518315489082,0.6812866244305575,0.9861161464888593,0.9383334229521736,0.6127046358489879,0.08592483520253016,0.6173312109221669,0.02628750551845811,0.7802173299962005,0.32664920198247627,0.9726123963936405,0.6427571076012947,0.8277703143706903,0.3691452663045246,0.5186360031720857,0.9021161267594358,0.2933255762543067,0.9655511376715784,0.7857557153296583,0.9904657557280377,0.7688383430648936,0.9276080480117439,0.480764986383056,0.8692928499197078,0.5568082833040866,0.51674984752562,0.024600987534238415,0.927906109581508,0.4823688010077939,0.9565193783152556,0.8204633919465607,0.9712980542245526,0.8761280127136896,0.659777942269636,0.09718595299788112,0.7340734349919744,0.05674940324423748,0.9165721291672944,0.6507812715190013,0.9856211882110816,0.927895108828876,0.6212197234775964,0.09154098774604601,0.7915146363272202,0.34708943220330046,0.9738094848726256,0.6812469955881829,0.8568809904409292,0.4963464531041131
3,3.921944916171286,0.49104100575725534,0.7271425664282807,0.0183295009428871,0.897906418914733,0.1480360493208213,0.9863827673791709,0.9224764794806757,0.8607472354722701,0.44348229828839625,0.9840686837925979,0.7179405709841608,0.8613339574334496,0.051066414271424526,0.9292666262914083,0.45906151851174104,0.7864768369550844,0.027487877246155902,0.8564105055341376,0.4876584066444849,0.9452697308525839,0.40112430443417796,0.5410943106909851,0.035973950814437376,0.9344263377365649,0.5001877095530317,0.6947863096293669,0.0201329847231151,0.9461109138283879,0.8089146986908565,0.9760983799102536,0.8759238011307928,0.939922405732987,0.48892771000200935,0.6683019735782976,0.0309184674308484,0.6130604444651502,0.019050965045700367,0.6141546399732037,0.09888657119770183,0.6978001394061519,0.09300404779123653,0.8958056997421012,0.6770946427756255,0.9775050406766336,0.9038564499252133,0.6357701689238388,0.09809012169850602,0.6965560059277487,0.04939101671071156,0.7082091836920267,0.271206420291771,0.9670252781287766,0.44281644413745774,0.8208320215806229,0.34965536238630546,0.5055952066261344,0.8900943169626415,0.15784509768159585,0.9853206368345196,0.9138591358206912,0.9833647889919925,0.7409466415388795,0.9283351323345277,0.47131536248710154,0.8455510338890777,0.45966050075238274,0.5076031027462569,0.02460981263596519,0.9302095116611822,0.4630429684793665,0.9387201435483253,0.7835960109007112,0.9741967523531125,0.8810994638223179,0.6307558024189093,0.1300031121672845,0.6946095505617979,0.11545775852086818,0.8894258970649888,0.6484387195017998,0.9762963313043178,0.8788547784209367,0.6506332887200386,0.09717917974653538,0.7193446197868093,0.2816704251833365,0.9631781542197085,0.5164167029350312,0.8442274414623878,0.47274972941217525
4,3.846974132316203,0.47467982610739046,0.6927619654327729,0.02010313426080853,0.94237447438538,0.47194246036160903,0.9723075817347564,0.8528378767126621,0.7968375164766797,0.34409411191372863,0.9672258679984689,0.6729241543100817,0.8769545139902837,0.06289128604050838,0.8850750779692549,0.5027627694508131,0.7796123058827366,0.02180197673158469,0.8376412005047167,0.5385884333283699,0.930709911369992,0.26617441751012183,0.5584792823645028,0.032770761715911964,0.896360338933987,0.4411224456950824,0.5039078751439099,0.009695508374082607,0.9646960829346943,0.8674022320193768,0.9780918141777083,0.8563882253875962,0.9605868736547312,0.49634815026219387,0.6818060853366452,0.04459034932454116,0.5077438999903345,0.01216103692238435,0.5826530722227273,0.06364215927054775,0.6647908910382755,0.0883861337159329,0.925744332977226,0.7234445207964133,0.9856264547756916,0.9400926553761044,0.47203213739624295,0.06761420408356986,0.6756534123407005,0.09564378763183946,0.5895178122114899,0.22733395053633015,0.9801752938236783,0.6455971395076525,0.7926679259641378,0.36024438004768644,0.4796898405145828,0.9369408294311017,0.45825205435539224,0.970191045571191,0.8472486355197782,0.962466087710089,0.6598076406194635,0.8879264712231769,0.48612496589975085,0.8230357876040378,0.5001557879725924,0.5265986187109687,0.024146910276524484,0.8781684856596063,0.4222764660440006,0.9560572400644519,0.8421756332187719,0.974242584054084,0.8560412305094238,0.5846285497594149,0.07184393991024988,0.6822606340288924,0.09661302295774385,0.9197323625253259,0.7031173858077677,0.9858288404777185,0.9259691470896344,0.4685168180117675,0.0652143389737967,0.592635206056883,0.23574307381675927,0.9764385042312727,0.6678096454555451,0.8203542540699988,0.49140874240169974
5,3.7825803837391287,0.5934672776407003,0.6912376098711502,0.01887336932111653,0.9174051163748859,0.5032893666962049,0.9747298244451983,0.8710489121150714,0.6971904996947209,0.18318222783643623,0.9761110212993067,0.6148559033980198,0.8876263431527758,0.0942213733361992,0.921272067009537,0.354186779391609,0.8086027783698466,0.03455456417282171,0.8860075566024684,0.5893615091782217,0.9384300539686458,0.4937527479430162,0.5113844783649084,0.041152374771766594,0.906016550487495,0.4998109239932646,0.6058801093293025,0.02322545897448703,0.9702095169455086,0.8786575704870945,0.9799559302386629,0.8547860034034257,0.7867723458776158,0.23795899262991538,0.6600648550617504,0.04574747452796366,0.5384978376063503,0.021953779480450995,0.5834501574172374,0.11331602543723067,0.6873767266257924,0.14164913316012273,0.9303924781258934,0.7468835752008816,0.9704416154842469,0.915338009454962,0.5533091802279015,0.09238382365895746,0.6362141701820394,0.07620083640645471,0.6060188154183631,0.26743063889998975,0.939906666465108,0.6144990454498914,0.7909424732556428,0.35878155458944516,0.5734425940611507,0.9050053415015223,0.46956009140074206,0.9725630664899512,0.8598525883920289,0.9696346903997906,0.6021177151239341,0.9245954406113727,0.38112149790764943,0.8728678820995381,0.5346478733307555,0.45902691280183483,0.020989429130967675,0.8805198055332707,0.4596876165451263,0.9644679566013254,0.8599823009244492,0.9741593963776632,0.8553762163543556,0.5834865242242514,0.09782939026589027,0.6875080256821829,0.1545788976041713,0.9246968887009289,0.7165180136345338,0.9718650009193708,0.9089143064147206,0.5475736769557328,0.0939987623859781,0.6066961101623595,0.2829056252752726,0.9302554494135713,0.5648990667673125,0.8234326355296667,0.491436211966118
6,3.73447951826782,0.5365996945129832,0.6682382949463695,0.01767910133663564,0.9095487410506125,0.33679065689759835,0.9835750312343262,0.9154933006266953,0.7836138939472633,0.36030347095579063,0.9572165818465662,0.6626287695182387,0.9151248353429215,0.19088732171467734,0.8854864977116214,0.37258135116039703,0.7419902533041974,0.021343304180124797,0.813884521252737,0.4415635564721332,0.9541168757237153,0.5472314555781476,0.548357351695784,0.03903170098257726,0.937317527143477,0.5390044891470409,0.7091459140847329,0.0214451973985725,0.9728249014158704,0.8908061275675943,0.9784634232449694,0.8804723196862417,0.941027000450529,0.4938007503151999,0.6444415532360179,0.034367096605014635,0.5753951845410172,0.022397656773867108,0.6385343043693352,0.12077787542015099,0.617225342703241,0.1261625758196893,0.9315124799182923,0.7729053636652137,0.9858448761230124,0.9436509835716628,0.6733004427879715,0.1285444128441827,0.7024524274141128,0.1415750714112747,0.7340903685486728,0.2966285139777282,0.9715236681786534,0.641712791242002,0.8143943189313855,0.38306866211032503,0.5244514935236585,0.9019156774785366,0.33748124197198787,0.9817092426279551,0.9079924257981009,0.954277556396529,0.6396118325795657,0.8851731358749622,0.38201234569355774,0.7966800325088381,0.40102380304738877,0.4981638648604537,0.02622212804705596,0.9192369645814266,0.48337006879275485,0.965110857783491,0.8609224859803131,0.9752835287145024,0.8660226869780336,0.637415368311083,0.11755004787559926,0.6189422150882825,0.11453421265204658,0.9238146015276205,0.7489828670097766,0.9865265284632033,0.9348332356273202,0.6748081928414666,0.118235995099736,0.7396971558465165,0.2994663220268463,0.9635978939810564,0.6471245600743014,0.8388970510553703,0.4928366412033991
7,3.7027062891008935,0.4896310656797086,0.7319788562024587,0.031053437469164794,0.9611837951598319,0.5946926409443145,0.9791771651394994,0.8858875696422048,0.7688926770977016,0.32893822610913437,0.9699578056646901,0.6556070051878289,0.8796455922104386,0.08430915398283723,0.9110067380780728,0.5286585040095807,0.8197166200424962,0.031067930751841753,0.853564906644179,0.6018881787471289,0.9457620342629627,0.6257075112980264,0.5353150207983235,0.045242544945345596,0.9303849480018754,0.5665803442193967,0.6496995133100827,0.014405930649458092,0.9685315714976157,0.8668957837709644,0.9736930780857637,0.8132342001310916,0.8346719595254719,0.3112213718823722,0.7807914683067704,0.07580940519200184,0.5057990579719234,0.01377390123198335,0.597776998136861,0.09270745787296843,0.6456412046808226,0.10431885256051886,0.9403657533704806,0.7735081331630689,0.9853497452105804,0.9442709653443219,0.5550384310834425,0.08708488258316024,0.6461349072453828,0.08417352962631006,0.5845126628863846,0.23523247934480213,0.9735433308227419,0.6863647584317751,0.8049283015937253,0.387793642272754,0.490968367257027,0.952055734622309,0.5746230292427098,0.9767154654115836,0.8798050028968403,0.9654539261727967,0.6324442551031146,0.9114658261733085,0.5345265365267396,0.8411671045736544,0.55957208455348,0.4787278912148987,0.02352323925013318,0.9059388351330754,0.5001368237708443,0.9593262443521565,0.8321438566676419,0.9692685888356486,0.803209534191562,0.5992033445840742,0.09307291140015289,0.6565718298555376,0.1217528975529012,0.9297592269117658,0.7209874781904134,0.9855201681894745,0.9268910868723488,0.5503345997107139,0.08444673145572873,0.5831516790453546,0.24490067829549994,0.9652122177756285,0.6823969788578949,0.8268670426601238,0.5134020703017503
8,3.660236034000008,0.5685583362707085,0.7159479696746778,0.025884049147351842,0.9342244948837203,0.606764721111933,0.9724376736744196,0.8755550853009307,0.6858535519655443,0.19024626631704894,0.9765085842872263,0.6149324176845321,0.9175143515922685,0.3101412467113721,0.8864212777151499,0.5107745868193394,0.741547419287251,0.03560689315564075,0.8088917760312667,0.5758228103001944,0.9302323093278719,0.5781642642628589,0.5521110007615885,0.047142692422194016,0.8897020519976204,0.5110901199336803,0.7157070796634549,0.026841922651201396,0.9767654440389713,0.9027618059002254,0.972104128970578,0.8460191546633582,0.9256810066467798,0.4177116354688919,0.7712056010592336,0.0703838502907926,0.615826902261873,0.02355098582831759,0.6500396035803845,0.16723764067836022,0.6166597272364729,0.09910859408903844,0.9368537406766319,0.7745983435490444,0.9716954328043694,0.9179641363827742,0.6239244188692297,0.14124054639543007,0.6922210022204834,0.12016420482045174,0.6848391165250266,0.30803209341102394,0.9633038968707124,0.6710352732172847,0.8126238293316462,0.3987990515582028,0.5517666754780157,0.9236794367060663,0.5732320292586994,0.9692652702750837,0.8637834445942396,0.9773468059122986,0.614739405908851,0.8875572082379863,0.4918415367009982,0.7924881704569481,0.5221860849371155,0.4986717548727375,0.028209618324214213,0.8704777843481653,0.4656394149050162,0.9684170427404019,0.8719512087606143,0.9693329415664647,0.8511801346677947,0.6484002225034906,0.14433534107131615,0.6055838683788122,0.09570358876869797,0.9262490186993431,0.7456396531535825,0.973087911787663,0.9033722001439318,0.6227633834882795,0.13436851825414037,0.6855253311969224,0.31146301063077986,0.9569583741197341,0.6256896488314203,0.8297377828306498,0.5152084274319633
9,3.626415296385815,0.6016625543414404,0.7678138516647833,0.03156548013873729,0.9568622772941429,0.6584636047391764,0.982439534335926,0.9031562334891998,0.7895565634931158,0.35574460844986333,0.9777268529577261,0.6134850983873258,0.9282332003820963,0.3263319818337032,0.883045696036562,0.567680253492688,0.7726788801262688,0.036377460775926296,0.8336977869039152,0.6137415003190972,0.9477902842890555,0.6660727310812689,0.5666164262382241,0.03873547530294742,0.9420260479526297,0.5765777539173066,0.7871280509602908,0.035424876682514164,0.9731687524096434,0.8843610063515696,0.985969882680976,0.9145003458031352,0.9610505968798186,0.4977424181531013,0.8514278955616665,0.09322267743794618,0.5835111568466101,0.017109760835955615,0.6479706446417357,0.1526816569964798,0.6823032232335636,0.16432885054444485,0.9330037654613754,0.784237252608682,0.9851421893318373,0.9575496594440684,0.6122460340214068,0.1281607080647167,0.6956500690522133,0.11526263871622905,0.7097408340105803,0.3447455292938445,0.980656811631834,0.7428942795450524,0.836056050323,0.4315443785540376,0.5858665961758746,0.9447317582575954,0.6340047867576084,0.979832173572335,0.89082618566146,0.9732767921910922,0.5959226412247046,0.8872738655498469,0.5537863915608221,0.8142631491989019,0.5602080287352573,0.49970707738826414,0.02732298074773112,0.9109111955636073,0.5129088219107878,0.964814535335959,0.847610913028394,0.9828718143828669,0.9055498011203904,0.6426445770424615,0.130973619167257,0.6632439807383628,0.16052962271290136,0.9208174824595599,0.7528950382639186,0.9854325141210188,0.9410531141579772,0.6136572698664202,0.1298080122447031,0.7155770189209749,0.34281273381273714,0.9744947742789082,0.6906920285596013,0.8420968736792609,0.5423065449791407
10,3.5985401226622336,0.5002056162613089,0.6868990740108752,0.017215934874575952,0.8964769302785474,0.4852075614943686,0.955013441344271,0.8762105309973716,0.6688007602554794,0.19923495582386808,0.9543024629478417,0.6297260131045003,0.9307916337588197,0.276033326904916,0.8970997898355095,0.4631682792406385,0.7294320988847032,0.027406955730678535,0.8603254135407162,0.6009151903670484,0.9483450877571624,0.5504699636597636,0.5774387408838385,0.06546612086841855,0.9284217019330187,0.5220305232365734,0.711348474484669,0.02453321365300576,0.971560482102417,0.8786423919198261,0.9793187732131646,0.9035985994301222,0.928526100595972,0.5386650544162838,0.6789497028297702,0.048338992226668646,0.6005494865138543,0.03932796690049507,0.6176385007114599,0.19588408635357127,0.6585497692898991,0.16483019636643698,0.9261075320553784,0.790141688325918,0.9758800389515627,0.9041230315789384,0.5817409235291976,0.10810436426191805,0.6833633223813075,0.14384410327996605,0.6940959876071991,0.32256131578858604,0.9614743515071107,0.6541292913929677,0.8077865608155286,0.40114652508451637,0.4958146092166711,0.8755310047284299,0.44675642463414683,0.9511057602083157,0.8649801144533891,0.9524780627769438,0.6297686226681375,0.8957426276931049,0.459681079796402,0.8396641443797742,0.53339129757915,0.5048499738001769,0.030381543874379392,0.9062941382518334,0.4766547240873715,0.9599357328389753,0.8315284735569236,0.9722804535957167,0.8869537746861615,0.6272479507579183,0.16621411827543156,0.641774077046549,0.14271958328285037,0.9136728221344678,0.7548109594841965,0.9763104357079191,0.8808683966442942,0.5742672316350272,0.10603285716064796,0.6959778616875629,0.3223402678278882,0.9447551608911565,0.5936279534808063,0.8269929648833669,0.507919386968261
11,3.5720019528482316,0.5904124074726824,0.7389810959686737,0.023189752373098196,0.9476068953394631,0.4870276383000052,0.9888687912202775,0.9422181317625786,0.6343925446792524,0.11510113677278047,0.9651475090175493,0.5827018188891865,0.9439056552945161,0.38941107169657824,0.9120720514605388,0.4661998344914491,0.7786207900125048,0.04074944529232882,0.880509444050086,0.6216481304250481,0.9305460411447425,0.5595280405117896,0.6364832726966334,0.05928709775677672,0.9480798861433474,0.561203918597353,0.7926762878704713,0.03569093382113809,0.9765711831751906,0.8973071061073796,0.9852254033155708,0.909503216235408,0.969537237349139,0.579524093682174,0.8325443619792949,0.0952341431307813,0.6649846117003778,0.04702573228766005,0.7109031204902364,0.24197323559515047,0.7560354542861907,0.22657947406802362,0.9501264984340956,0.8228703419562309,0.9911173048831432,0.9689642611949094,0.747272007426824,0.16322566390579102,0.747757765055569,0.15965613051307317,0.7646538242111163,0.36100789370754227,0.9821723700368763,0.7445710807224704,0.8529535156631417,0.4269768970691041,0.5636619966516874,0.9282671803048431,0.45658107021216987,0.9855907072388967,0.9293488451794847,0.952853159380487,0.5536660509614457,0.9122596174603861,0.4483273050220969,0.8626724642142282,0.5670782677141584,0.5561324766134367,0.03500646468203623,0.9319946064233279,0.5130772113903124,0.9663060291474488,0.8432169059325312,0.979356585701514,0.8846806332054542,0.6969626766717898,0.17546083194128764,0.7415682182985555,0.18987473916278486,0.9302869454573519,0.7551406485336103,0.9911882923111799,0.9616460091630962,0.7271517912337877,0.15045162353298547,0.7639409712848177,0.3472706528819468,0.9753042723900791,0.6809199301269762,0.8688647496332582,0.5307341993526484
12,3.545350881990458,0.6023968981318294,0.742515363633376,0.022874719175266,0.9402910097178881,0.5148534871152627,0.9877656225030967,0.9404473417260955,0.8007776045650189,0.27011429155419997,0.9786987256496185,0.6820329636590552,0.9445031227396109,0.37022434682772776,0.9609976869970838,0.5679885654905517,0.8064447022040864,0.039958604359325606,0.8791581531239476,0.6325039578422327,0.9595458370189381,0.6120417781136704,0.5658009522202662,0.07559235273773435,0.9370327678775896,0.5569257037379648,0.7866056122750571,0.035282885284920885,0.979826213446979,0.9125273788228996,0.9880281946650337,0.9123197769299011,0.9542865351343699,0.4916579950606369,0.7800842393000647,0.09118997963034622,0.6096284726178491,0.04560362430388987,0.6737045032487479,0.1960616415325421,0.7262986250558521,0.21232827938257567,0.9537943712359079,0.8214570754892381,0.9884641738175687,0.9611387897333992,0.6650790579037424,0.1456418066489577,0.7070953417902082,0.17963876331756,0.6655930337868293,0.28975545243309864,0.9781388914330734,0.7133467788740702,0.8446214928446848,0.4343657053762739,0.5688606925720328,0.9216261898280425,0.48858069299804957,0.9858739356009677,0.9322010214474905,0.9730377758927138,0.6430386898017004,0.9600416648676654,0.5638750412246487,0.8619466953198203,0.5618789587286405,0.5072367347289393,0.03557725595609913,0.9134548143572592,0.4781235252389087,0.9705559543119945,0.8779316686506741,0.9847995710655054,0.8654367175777966,0.6698551090417785,0.16804158495157748,0.7190427367576243,0.1620196107749016,0.9345100366173207,0.7404614294594964,0.9887167724989239,0.946275334289985,0.654855546952992,0.1314283055048093,0.6528266406060728,0.28882499013272755,0.9654489541159806,0.6423552200613372,0.8539893207852249,0.5328781279249277
13,3.5212607872554744,0.5876219010692045,0.7426758886386216,0.0292643367741911,0.9578809821829868,0.6510434810586879,0.9863784687724836,0.9233261425871566,0.7914830772679118,0.3140702945253438,0.9616730727330696,0.6447576332649968,0.952646073719705,0.3412059115045994,0.8877092709469909,0.5527805739845486,0.7801847174563189,0.033162117517470904,0.8569579369565248,0.6480704269334903,0.9516151800632822,0.5699452522362395,0.571703416253927,0.08256111076176323,0.9297838842460245,0.4950690549161909,0.7316662303628079,0.028543448981868162,0.981158788891461,0.9169111530417946,0.9905012834453627,0.8967626410061393,0.9163783813470926,0.37889386043302264,0.8193595316242348,0.10977499743636274,0.5938853340582244,0.06264774059855266,0.6928739430673604,0.20869848644965452,0.647288381051432,0.206527588411551,0.9626767417726813,0.8469422319438552,0.9879075049597352,0.9499821046511622,0.5582458337884083,0.09228221939190484,0.7424213896053052,0.18411121026207955,0.6439029444700577,0.2957966432947029,0.9842354493143596,0.7485137154672656,0.8316612964229372,0.43121709143979203,0.5575821658295885,0.9408919106562383,0.613145611164395,0.9837335080284807,0.9084446493493628,0.9536494312651642,0.5863082481871003,0.8804809809593713,0.5199192036247914,0.8358770097158472,0.57908811177973,0.5052846331595269,0.02946345655019369,0.9075374899194772,0.43339791550457246,0.9698679622108655,0.8693816619339816,0.9833508498327457,0.8591476352189773,0.6776744367095602,0.1694005402079234,0.6278968699839487,0.17344084377241417,0.9447090614935219,0.7661630693476408,0.9873106889964237,0.9295358363868855,0.5373890419344964,0.0800689522878649,0.6304929161188297,0.28084028843857567,0.9730280213280752,0.6828644084061269,0.8336984257695358,0.5300381520100336
14,3.4926060270218238,0.5659146986253084,0.6863427347899397,0.025781048071273738,0.9008862009202264,0.2770881731008823,0.9850942563317369,0.9383957204071376,0.7456468830310421,0.26268850027730706,0.9767304624761007,0.622895112354629,0.9400841262445176,0.33365537398976397,0.9025688125587448,0.2921571833507139,0.739773064171081,0.03624600325442011,0.8191293191564579,0.5074209663765117,0.9650684714302383,0.5185316170558013,0.5506391080294851,0.06378316671134802,0.9401398644174745,0.5409994653464851,0.7814936088521831,0.03567064976632252,0.974564813838501,0.9010722086763263,0.9819137137131683,0.9121478087340481,0.9264860509962074,0.5501625019393834,0.7957333648737889,0.07653332826378359,0.6181496137562619,0.0974122130902159,0.6285986897150454,0.20644330875331177,0.6791181658524348,0.1708857204481681,0.9396729781680728,0.8131732215101326,0.975047962143656,0.9262412511156813,0.6881232707150139,0.1484286286163417,0.6986373903282204,0.19953358283198627,0.6697431973152717,0.29403204720405424,0.9749057194356238,0.7069095361416107,0.8263189170484805,0.4022418591302938,0.5381971979910124,0.8814441155411387,0.272222156915725,0.9831505706300562,0.9292641686540465,0.9681275673368466,0.6041804218438614,0.8972676050256897,0.31116677674478166,0.8025407527539067,0.4363969996165744,0.47969513714104095,0.023649832343381416,0.9202570486237969,0.4842490178182588,0.9615276144573214,0.8488436599431178,0.9790658997076815,0.8911102064567417,0.6108458522938452,0.1475237527642484,0.6628838282504014,0.1357552480557534,0.9137232829676737,0.7085096779173133,0.9730237404435281,0.9071526717663095,0.6717171717171717,0.11846780284387028,0.6640419494899781,0.2868577640316002,0.9590695327338609,0.6510658342773865,0.8330238543196211,0.4847759994995607
15,3.470378602129524,0.5919692163083069,0.6433862433862434,0.023924953840385947,0.9299928231981034,0.5613686588444265,0.9821206249896411,0.9302276831853249,0.702816474151537,0.18642791448886123,0.9657562373257081,0.6018345746390814,0.9520493133366753,0.4073849351937997,0.8946124740635991,0.4380190348850688,0.7530057343805003,0.036066752733662555,0.86285103626219,0.6118272993860584,0.9527549594411571,0.5572017387381908,0.614430511117091,0.09026337277471287,0.9089721627321602,0.5443695601471417,0.7405668290842967,0.04293279416221851,0.983263883081505,0.9302379621242697,0.9864142899947833,0.9401486935069392,0.9341394425562389,0.5174109547894519,0.8075051171103687,0.10507674925935047,0.6809947885633192,0.08777206248210624,0.6901395666150398,0.2584894755155214,0.7037661594627289,0.22510661233722978,0.9633113846981488,0.8542998479253557,0.9908498100629031,0.9649093093373514,0.6446133113987186,0.19732563653969207,0.7523284008416871,0.25001804045397513,0.6783533443910681,0.32429088885663004,0.9810340228122952,0.7468367210063355,0.834616497886835,0.43976047027512083,0.5774077011190413,0.9124142443090705,0.5230821784615937,0.9772499576021363,0.9169281270106556,0.9537855115703289,0.5850550518817514,0.8978856698760849,0.4257184695755988,0.8470629561597509,0.5325263064036748,0.548057777052391,0.03827607111838874,0.8801804052631733,0.47548390222498127,0.9705086175807971,0.8811948170613331,0.98147551708204,0.8966562971810653,0.65955207988026,0.20299039112999898,0.6818808186195827,0.16701686962033424,0.9408259802334881,0.7327957261945722,0.9889623072736631,0.9458413347496896,0.6204677994042225,0.14817415667081082,0.6683701320490745,0.30567608797278883,0.9726176264222677,0.6790920406530344,0.8438310875236457,0.528531739244392
16,3.441882420168852,0.5960227940312537,0.7031171554463479,0.02770050129832723,0.9493812680432709,0.5968271028701377,0.9873474389772896,0.9371274392328425,0.7531034336100281,0.14775825084438649,0.9741891545291635,0.6260301791560038,0.9567321853945016,0.4476171881605793,0.902763111141882,0.46739937153627625,0.7405807199947347,0.03677383968479085,0.8884015680172822,0.6693307379928635,0.954755730993594,0.5085343293613866,0.6286480967325547,0.11569403724040753,0.9198561773050935,0.5051258708883055,0.7340228341735702,0.02751451094049283,0.9832984082314162,0.9209538425258464,0.9931216503599604,0.9328966802878272,0.9691878421498658,0.6022816002478177,0.7787761646148943,0.10683659840694311,0.6543720657802773,0.09409512000677096,0.6530940046026604,0.2340298289406965,0.7125517655672554,0.21392282606433907,0.9532685503236746,0.8471052608504813,0.9891808292654918,0.9585468588363436,0.6481152386413281,0.14081975767250526,0.7417798928972107,0.24413930883137874,0.691391307811476,0.31459199534053217,0.9817767962659473,0.723080832627084,0.8401082073411834,0.4402589949940525,0.5599612300643229,0.935948019298033,0.5721495418221464,0.9831313653281702,0.9209539903502876,0.9674714177465964,0.590393180198111,0.897714692802556,0.4426599167029136,0.8643307272410649,0.5856198602388273,0.5275789645486328,0.0328168328894461,0.8912182377216408,0.4396156995550911,0.9667975126781092,0.8505315714386791,0.9837561150790064,0.8742848831004437,0.6316948814151825,0.16060162993351562,0.6511821829855537,0.1483129753080543,0.9310966510120295,0.7264278428211269,0.987540568621616,0.9454955173702975,0.6209826528305435,0.10653870995698063,0.6763801179228681,0.30484009498543035,0.9720456433894102,0.6420967453557048,0.8430543594138133,0.5214586870016911
17,3.421037354041821,0.572494418987193,0.6732518574133481,0.02597667301135194,0.9285361883870332,0.6242077289993105,0.9856765993630914,0.927359009900213,0.6559392717539888,0.15268035942497316,0.9676501975415497,0.6154295467539599,0.958720161097021,0.4056834181133975,0.9061541293668975,0.5066610250282223,0.7322117971127029,0.034257095840213386,0.8677660329994173,0.6176421690659859,0.9168934731158926,0.5193784913461142,0.6395657374525078,0.12761374060875877,0.84874958116753,0.42996313632480226,0.6953948831409374,0.03292971227693134,0.9839978179049491,0.928608530430152,0.985438837213737,0.8755791232247422,0.9439046095090722,0.5389822622468612,0.7872062712939144,0.11853811300030294,0.6126043660209226,0.10217785253509262,0.6621605412089986,0.2624670107934496,0.740515992285547,0.2577310649811633,0.9601487149594821,0.8464433851900338,0.986250040438421,0.9597273367911543,0.5754689206531236,0.1256793873266798,0.7056808065076309,0.23504916104142576,0.6481759483891161,0.31505886558002494,0.9773454096636132,0.7362120881205277,0.8209772379215555,0.4354629341521478,0.5597850030839722,0.9066566890010821,0.5618089462270266,0.9829689509412857,0.9098022209785337,0.959189381748101,0.5658557729506261,0.9012018047579984,0.47176743447410696,0.8445387175260143,0.5388643216354048,0.5592081640366626,0.04756168186522508,0.8098362466933584,0.35616543826168845,0.9674523665720532,0.8660059240491575,0.971633630172076,0.8122064101203084,0.6376661870033853,0.1839697585006601,0.7251910112359551,0.17991231237280203,0.9353773410222261,0.7215432427013188,0.9849511182724395,0.9409592692795571,0.5538884587607107,0.09412811119009626,0.6265193021874559,0.2925777641050643,0.9604124663487856,0.6617441817928035,0.8329182397674744,0.5128045494065238
18,3.388506921390125,0.5491716602044413,0.6431339536929599,0.023390622477727337,0.9286731787078136,0.6316595698686436,0.9734297765873772,0.8941152901688816,0.6554677673615641,0.11644704471438128,0.9754203379844465,0.6372492206504335,0.9609845980670338,0.2794282880070956,0.9130759509008438,0.4230002993262588,0.6815551842796943,0.026050023925195332,0.8020407437864094,0.4846867621666714,0.9327604828452736,0.5557117983190054,0.5752436654829027,0.11179652914378196,0.8954704467223852,0.520093387345067,0.6847135313308395,0.033055581678154825,0.9797829405252515,0.9101535671638874,0.9830959074604967,0.9012363331141012,0.9385109086441397,0.5002945172061829,0.7275206902103026,0.08078640630869845,0.5566580232757057,0.1189672759442823,0.6393854687025811,0.20901998874596706,0.6570051271928081,0.09755626792383877,0.9365757517260042,0.8122921069984697,0.968958438078505,0.9136062467167078,0.5654757126474442,0.14108515402643151,0.7438335672752516,0.1746502058116944,0.616026559144583,0.2508853818311692,0.9715933837763624,0.6985270073062892,0.8040920037080377,0.4056055721880391,0.5193409110934885,0.9028798928497083,0.5733738780472585,0.9700125492360144,0.8773256666418718,0.9664213089362454,0.6043222730366616,0.9060503648374423,0.39561758898104926,0.7788273365488468,0.41283567685701844,0.49169637411629286,0.03348740992795597,0.8520817456640672,0.4225019741018552,0.9586427438754953,0.8408734074343948,0.9631271409054838,0.8471150480763905,0.6005591467518508,0.11762606250958277,0.6368101926163723,0.05824890059355646,0.9110822166694889,0.6970544801641856,0.9656540787941399,0.8970589768962063,0.5477560312973265,0.11221172007469703,0.5977969111185428,0.2269281581147832,0.9479982151325917,0.6225964936706614,0.8123372655843693,0.48369860719550806
19,3.3762661951323008,0.6130595699682764,0.6519204857714175,0.025038089257507706,0.9692772527512775,0.6974700073197962,0.9862721816598867,0.9115833071752346,0.6881906907777482,0.23357814318804948,0.9600286630140052,0.602496560259115,0.9630312599209645,0.48972642564900454,0.8664889010336685,0.5108622070446791,0.7264693255627054,0.02793316352408812,0.8347611529884064,0.5802853904972525,0.8880229877059616,0.5268520873280802,0.6228039555271476,0.13688531497954493,0.9083416783734898,0.5155416950525664,0.6720321485572416,0.03548519677886046,0.9851672560235533,0.9370480360686604,0.9873354593986403,0.8060265163793334,0.956756304944463,0.5023811540076356,0.7636169674509069,0.1272804266208988,0.6142328938699031,0.10839159869774488,0.6991717404353063,0.26978360988938666,0.6730392303264225,0.18708249390616072,0.9473614785360532,0.8278391384454087,0.983278479166785,0.9342795328571556,0.5813367714249308,0.13057179030793759,0.7714611055601355,0.2633814615761653,0.7171723360991864,0.34110038618908534,0.9815562451036796,0.7634034065275094,0.8230433443070725,0.44201181305872544,0.5649836990043176,0.9522970744127207,0.6140045580415222,0.9821200965342205,0.8963712290102364,0.9409098895081816,0.5548627911149053,0.8613697595095203,0.44139857386744474,0.8080472120612187,0.4845406529648036,0.5311966876551588,0.032876377093981946,0.8616602825099214,0.3986765048757511,0.9671866370778408,0.8623268031358818,0.9756853408874023,0.7023659120068629,0.6602872705903626,0.17508165945553184,0.6350064205457464,0.12730480160726299,0.9271616954500725,0.7069815658988698,0.9807228986838598,0.9172680385704172,0.5592642607497034,0.09824083304540358,0.697862298181403,0.2998663432425267,0.966854965505802,0.6693340062472898,0.8317270493664459,0.49884379063616824
20,3.345893345012492,0.49007167195394197,0.6558214961941671,0.019158664749343503,0.910595936658426,0.35079339814807176,0.9762802402918185,0.915012013413526,0.7221522686842,0.16005423178452624,0.9690526463471554,0.6626675545477072,0.9748613981586689,0.5292483799721934,0.8639263704337181,0.43734067368386165,0.6976723136960338,0.023699153781200178,0.7964588261843446,0.5412855642262546,0.9024120865875184,0.44695038598362014,0.61107818533429,0.12912855500263348,0.8627183177378531,0.4759085022344002,0.7591177654486752,0.02748595730339618,0.9859231491547614,0.9404351505682246,0.9888386448138068,0.9466950306753248,0.9800907753584485,0.7274723549457129,0.8026055044665885,0.1078941155649886,0.6459250228961497,0.13831601119361273,0.6747567931566456,0.2225720362328903,0.6412467645938187,0.1874319528818182,0.9488907968544141,0.8346740080040425,0.983624777726605,0.9409197934654269,0.574772257718072,0.10735015560267,0.7939299290397352,0.2965879269966573,0.6359138568343019,0.30080616663376425,0.9904870666006266,0.7620876390611341,0.8211212765758016,0.4319990529483462,0.4703498105559961,0.8893542845247436,0.31958405288524516,0.9748055014617295,0.907688344169044,0.9574327332146964,0.6193106523793404,0.8466568801001684,0.3836387463352952,0.771201206669952,0.46077188167732136,0.5101242988326047,0.02667495285576813,0.8292314446189573,0.39130375434801123,0.968288557327152,0.8700284333783265,0.9806696953259199,0.9006898504970402,0.6452959095520798,0.12566062637186573,0.6076300160513644,0.1182350650996377,0.9172549759045989,0.7148151635750795,0.9821278745106842,0.9124912942755496,0.5545328507895353,0.08309265905047297,0.6058699376971259,0.2666414416782442,0.976939232740636,0.7084287729215528,0.8135884624576217,0.4880659807186121
21,3.3230997778220543,0.5956115615086359,0.6834751514875739,0.03580523702900711,0.9481909720978849,0.5614363650651112,0.9853983125885923,0.938050465444292,0.7473809002826776,0.2509403868198329,0.9847655824452377,0.6909863747982343,0.9700586083745845,0.4843071615655998,0.8796670219372493,0.5115411519775165,0.7525208148290826,0.047832537435817626,0.8560956208979542,0.6440441691945759,0.9274204224942326,0.5255170295158583,0.6924458497914048,0.16913369049426494,0.8845363294990363,0.5047730593912649,0.7308219120242528,0.03887584779362245,0.981487597919226,0.9169164448329525,0.989585158965036,0.905240908357722,0.9550723461183065,0.6169624524799066,0.8472176389997733,0.14204246104474783,0.6920034386649329,0.1812432029244964,0.7278071138327941,0.30819134279673543,0.7577082642251797,0.35441869126961495,0.9709833753138013,0.897889264393352,0.9839164472446847,0.9568089595816491,0.6096594560033494,0.19189370567934536,0.7896323241739329,0.2594068226179823,0.635758884725999,0.33211833811149155,0.988358562258074,0.7744854550358188,0.8450756964305713,0.47080236637118517,0.5488589303022293,0.9279603585096868,0.4951526801891013,0.982065371391995,0.923376879127231,0.9751727546210717,0.6497089837458846,0.8735497171970122,0.47542820538687436,0.8287309285014276,0.5403365667899591,0.6049972941166365,0.04711272157839665,0.833282067571204,0.36471378049668285,0.9554670406093757,0.7956949489323412,0.9763681076655718,0.8614963423786456,0.6773058996072285,0.19132282036395135,0.7296645264847512,0.268169788605476,0.9345484829664298,0.7287313158501343,0.9796116784461822,0.9272302900196904,0.5709085307421612,0.1229203331882053,0.6011380684723824,0.2701438471067365,0.9794853165063634,0.6812873508541122,0.8393910089630925,0.5214266784133389
22,3.296547717513608,0.6202855128657032,0.7546779767276662,0.044575095419081126,0.9573808458223891,0.7147746573530592,0.9856952340446579,0.9405144794729063,0.7421540808398607,0.3047254563217481,0.9788468474557469,0.7109735631364118,0.9570454138893858,0.5457524447869925,0.8968755893329681,0.6321648734084274,0.766238163066049,0.035652675629070985,0.8406961286189178,0.6447514503631768,0.9507225530072843,0.7579921314482684,0.6578105564370144,0.18206369881517703,0.9394430126524437,0.6025218736218917,0.7549010293956208,0.06071319880619124,0.9889002841544536,0.9495351550047988,0.9933670018076634,0.9368063141529145,0.959340796637684,0.525852534412513,0.8438826300797382,0.2884677861702861,0.6579445397228303,0.150251622756354,0.7517839825327387,0.3720099885779038,0.7279807780711663,0.2442466545163144,0.9685513820318316,0.8837701310929946,0.9871504606557847,0.9595507468390665,0.5589933172236785,0.13783580970599651,0.7565068332333984,0.3142864476728462,0.6862341316376681,0.3441634557365879,0.9850448038315124,0.8340973720652138,0.8480064758811598,0.5045403698956228,0.5783769495109702,0.9265454896910164,0.6047508637039882,0.9818430151978399,0.9178758356142314,0.9657339012957001,0.6495056949471756,0.8913842234791245,0.5815671888587062,0.8136048149534283,0.5442967153992391,0.5347435423878776,0.03383346712433346,0.8867625106245676,0.442383285733343,0.9676075521974173,0.8632772774428459,0.9747800078353372,0.8712509204335867,0.6994193814101598,0.23862231635449044,0.6676649277688604,0.1383436484274404,0.9444711747084086,0.7452278264699568,0.9853201958075214,0.9322984056572956,0.5146539668821308,0.08152089692581206,0.6481916646618969,0.2829052218150594,0.9746832288656357,0.7070786743515812,0.8360880998604328,0.5396711399536929
23,3.2660404868557875,0.6234872517917989,0.6981685613673191,0.04123000714957823,0.945929006438426,0.675630333143983,0.9914015236330158,0.955717621103942,0.7590932707011234,0.3219197508905749,0.9862623544673972,0.6864192052691462,0.972796635515869,0.622403288852952,0.9325495759128333,0.6628932334575591,0.7145485526380143,0.03832495430599069,0.839219234918235,0.601913659534465,0.9110247407863983,0.5543530646797511,0.6643753556238916,0.19930184385378108,0.9074166758953652,0.5588182695864607,0.713043092746941,0.05278234166356013,0.9895137701320958,0.9540964685017874,0.9604314876009737,0.8030474025610786,0.9311606121680466,0.5028441316788185,0.7746041508553706,0.13483051910621613,0.6407874209623012,0.196117712240694,0.727207004390137,0.3444812306919568,0.6929243312500137,0.28102571245028674,0.9732366779915005,0.8893910400883989,0.988072430790995,0.9611575490108317,0.6113716984309014,0.21105674919197093,0.7837280547441529,0.3203176003966749,0.6676639771064616,0.3308348607466904,0.9738159686066394,0.7830926185976685,0.8365517756028622,0.4878461987982623,0.5729139131200987,0.919389650526258,0.6035809443894437,0.9877592449937295,0.928243877124978,0.9754764427476472,0.6251612824198529,0.9166104658693495,0.580783111683966,0.8124272378943056,0.49629266013772316,0.5530288713459838,0.04999750842209235,0.8419484923471726,0.41585811409629203,0.9659992012893558,0.8573202207378497,0.9324038915508945,0.7479534187181197,0.6770503721785252,0.16401342594707452,0.6437728731942216,0.17845264321290044,0.9404514110234163,0.724889056986204,0.9865524480740104,0.9411333463589754,0.5498680606820833,0.12867852878557676,0.6329877590782149,0.2677993141179951,0.9410285103755152,0.6480599807375286,0.8297971833231677,0.5223885896172857
24,3.2422223434564774,0.5793972506168488,0.67217349593126,0.02628107009992853,0.9174901970822509,0.5823976898391416,0.9772795297070208,0.9151563603718467,0.6159202430391724,0.07706136366298917,0.9681422399102891,0.5042660187374687,0.9485138615982572,0.28109127723069216,0.8776273404545394,0.4596058266522781,0.7363345492047525,0.031637876329238306,0.8194160693650099,0.6003612729574134,0.9507812045392898,0.49973397645558,0.631972854969513,0.21500696367149935,0.9107711887817693,0.3873723357562367,0.7119251696659038,0.022846774514773637,0.9881233268842755,0.9476027585478999,0.9814426860195314,0.8385813924084577,0.899039447654503,0.4286580859962525,0.7987808299739463,0.21803037377999335,0.6179336958701975,0.1436291884951748,0.6518974097707408,0.1904438748556257,0.7781012718136211,0.20626162578399077,0.9478582178367588,0.7540977095674775,0.9799094081105598,0.9329923380388363,0.6354711732743556,0.12483835068841488,0.6978697451963318,0.1646197010525668,0.6103733551235231,0.2340950975612346,0.980467316812041,0.7579149923931326,0.8194467626380545,0.40556093444031316,0.5418098510882016,0.8926446837762471,0.506452521215543,0.9727519297008864,0.8930609065075763,0.9599428085465976,0.4664151215794853,0.8722168731920038,0.39192411471373634,0.7778022741210113,0.488237714984921,0.5151542353517218,0.03691296674769766,0.8637027523227575,0.30879178634193344,0.9623780536433713,0.847521518153897,0.9651861143758349,0.7849476712053505,0.6003475675295583,0.08081002547167031,0.7281247993579454,0.13283410848404853,0.910950481385041,0.6003927374606387,0.9751899848396124,0.9046154900910932,0.6010885243802653,0.09509687563691467,0.5822583668160515,0.2077148217476522,0.9572975145020476,0.6350209271853542,0.8210648102400595,0.46129683172046954
25,3.223490340072951,0.5986958054282693,0.6246464025967132,0.0284611624903484,0.9044203095188139,0.5056886496101358,0.9832612477180085,0.9330118079332064,0.6599718222759305,0.1707478034285348,0.9768427601996506,0.6343066937461381,0.9615841866983242,0.5381482578043789,0.890794037291476,0.48950371085853916,0.6702626149427197,0.045839933000884875,0.8051647962199346,0.5286425858265567,0.8801006435658654,0.5126190654560614,0.6275847443190454,0.22833050282881198,0.8621268928004702,0.4737785927179462,0.6956318946565445,0.04258193558695573,0.9914425164603142,0.9652425625628729,0.9757308235982285,0.8710681651027765,0.9251568700859462,0.5069428695082093,0.7803968183565452,0.23346618047801573,0.6512226791673128,0.1489832554003443,0.6193170195349247,0.27330803141225574,0.7328988030907004,0.2292822672977803,0.9503235478210625,0.8692875196047816,0.9795067522055889,0.9432934632368561,0.6467176350662589,0.18524005284884223,0.7039510293498228,0.28338006133118476,0.6087199644510715,0.3067123682051487,0.9723436712198186,0.7367253900622861,0.8107738647388882,0.44940741878230206,0.5461274121067935,0.8682836623256005,0.4253703993597975,0.9792472425439568,0.9131549067330279,0.9681057405948298,0.5910946784387523,0.8823798627002288,0.41114252986452565,0.7725451198743493,0.41226351062877414,0.517369194162164,0.03853432386402626,0.8076973135485157,0.3424950174391422,0.9663574582476057,0.8642914242746039,0.9575535665852998,0.8231771977822494,0.5776175551738341,0.12252772084522916,0.6948996789727127,0.12701114814914113,0.913294153865116,0.7082849018645913,0.9753743759170631,0.9209786010132056,0.6041796455343692,0.11203971928610944,0.5689412299495928,0.24166630289895888,0.9372835595177742,0.6130698868894064,0.8119455849695633,0.47919389183322125
26,3.1962346509878117,0.611297144871343,0.6917774541998144,0.05517245033224412,0.9353774329269927,0.5862070321637943,0.9858738625716829,0.9454730105682841,0.7282159856905966,0.26345020320173446,0.965488196979858,0.646909574732331,0.9760001923208818,0.5505756994242673,0.9427789203122282,0.518454434530324,0.8272434699492983,0.1113515334039564,0.8953164234492048,0.6901775384079518,0.9316200492180257,0.527154764094197,0.7153188797447035,0.2737943780929229,0.9201822526521334,0.6350887771342333,0.8208159163647725,0.09120873717500094,0.9935390945005791,0.9722262588216937,0.9891666993745876,0.914293872756958,0.952508400648289,0.6525958521163097,0.8589238790817784,0.20741075059339123,0.7253639378447401,0.23054876830925858,0.704551112541204,0.30730798752324967,0.7607331051493232,0.31708695899231537,0.9607502687515355,0.9051584520711837,0.9727134854032882,0.9201356162389331,0.7057689288444735,0.2536095842590732,0.7510381085151607,0.2890585757096118,0.6505940153921751,0.30152372398903415,0.9850692131830061,0.798818174667343,0.8594895879080897,0.4986458734349845,0.5358181337562781,0.9056824654632468,0.5203242463166522,0.9794624881246107,0.9231736707408025,0.9317636762054021,0.5728669211266079,0.9284406977246233,0.4374125071582119,0.865318387935085,0.5480869257549338,0.5730854801439702,0.04299681498145802,0.863002189989659,0.4539616784907759,0.9666768377007394,0.8544713274383129,0.9787551231052046,0.8474511720676344,0.6395970828436247,0.12053037320852182,0.6996540930979134,0.17831230047546845,0.9134967039322982,0.7104867331832199,0.9672344366029212,0.8935677739672421,0.6533522989850975,0.1436117604907238,0.6000159156577562,0.25411320762025613,0.9627700955277857,0.6569089070259398,0.8392692483149962,0.5098922700029227
27,3.1606889865524748,0.6006932205381271,0.7107804548798337,0.049954118191781915,0.9408354649746606,0.6580815148459959,0.9739192638055515,0.9104738172662692,0.6509862203424268,0.1643906245916747,0.9579135273484857,0.6419001593888634,0.9670268676514155,0.5902396713578375,0.8756362048657681,0.5844334377376521,0.7384609857434496,0.06335376926547763,0.8377176302558936,0.6507113123708266,0.916097290114492,0.6318977203100032,0.7078481513270063,0.3069631793794173,0.9257187755757286,0.5457974094734994,0.7540006952713106,0.06380241922165762,0.9932469463933689,0.9713297844414848,0.9825810561977912,0.9238342213489471,0.9609084362704949,0.5897008020524117,0.8119283374565908,0.27433065564569675,0.6571491692721391,0.18494378802141423,0.7351679981589058,0.32856301526086074,0.7665370720757915,0.3337447528325851,0.9662223387377836,0.885415941709838,0.9833392240752097,0.9465734718689599,0.6251088653160041,0.13155023627751447,0.7410054655920001,0.33492195024455856,0.7015736646241766,0.3108424963912613,0.9887774560742826,0.8125718929744246,0.8411725985538678,0.4957816216334967,0.544717596263988,0.9089845885671279,0.5417421500287206,0.9632741464472716,0.8799835940541715,0.9420812579964022,0.570272357347124,0.8541947670653253,0.4513606302298153,0.7943610453493831,0.5268112030990441,0.5462109042804498,0.0351807772409625,0.8707721962963939,0.39355245916761644,0.9648846296311269,0.8647903350405759,0.9625366653607771,0.8551613884640024,0.6731888944138064,0.1305632004023639,0.699026886035313,0.20090414811827464,0.9336133320630963,0.7226033749610327,0.9794671636930498,0.9151146559100377,0.5679496489954006,0.08147650976915549,0.644974115147381,0.24752286599540008,0.9695104619551462,0.7070142867855153,0.8296894189560906,0.5077533710383633
28,3.1303725243735268,0.6605275525790154,0.6832736736463445,0.08565514795789078,0.9285229642002713,0.5931609042041414,0.9829946491653007,0.935709324748982,0.7583704071379342,0.2629232480730781,0.9759378663613676,0.7011158396348184,0.9902062005100746,0.6464280989619794,0.9273793295902775,0.569839942115046,0.7357023000922018,0.08372012536141368,0.8927476056698185,0.6766206443292431,0.9069594276103088,0.4244331268792051,0.7185999277378373,0.3033537160798351,0.8797595327254452,0.5962253977434037,0.7896904213006358,0.11272347441765049,0.9942828382479625,0.9742169880648781,0.9939064050315511,0.930720836134148,0.9372723149160547,0.6190554672182745,0.8142687706778898,0.15835336395942334,0.6964309411121252,0.2637261467731909,0.7787425270798471,0.42031784802888755,0.7874356172869379,0.3074222615989701,0.9635885226306153,0.9115832936653943,0.9822219685844781,0.9435707993510997,0.6712417858963157,0.21725922935029662,0.8539168310482468,0.4470885340087701,0.7494462778882595,0.43229136263026136,0.9673840377958134,0.736871242024374,0.860010890151689,0.5136302447428714,0.5780244955502687,0.8900454199197975,0.5035402630686635,0.9787154749810074,0.9167853281221228,0.9595784905810871,0.6164996913846732,0.906205906480722,0.46031993906558155,0.8566414246786439,0.5245140529325152,0.5669431249087301,0.044608641767020576,0.8147144455199793,0.3861481475794994,0.965075074508564,0.8452544841766948,0.9833018789741735,0.8461635172669477,0.6758935926026379,0.20289267867549057,0.7221910112359551,0.1611924073567108,0.9218094548053273,0.7379046410641091,0.9788209087814312,0.9127798668962885,0.599205363198233,0.1026460820009037,0.6774527286589546,0.29407183324307296,0.9224595036791475,0.5845848281085386,0.8386908627196494,0.5087441501693021
29,3.1035351814023056,0.6748031958641758,0.7043468149058212,0.07960746223684964,0.9086587549834931,0.6566458168699065,0.9653429784416454,0.897794237502976,0.794605858664679,0.3921066942358096,0.9847140950867974,0.7221160080080313,0.9825498496432519,0.731464894596588,0.8980933386114054,0.5401911148435555,0.7523271126847733,0.08244904940716623,0.8182994212246507,0.6128055792746018,0.9468139517986006,0.6339665780932597,0.6871124349880253,0.3263281873382169,0.9240409369622954,0.660548307707799,0.7493895968270858,0.07828139574947418,0.9957114506528576,0.9810592536172288,0.9943933746835447,0.9465289498391852,0.9698815561652565,0.6216422222658571,0.8818579956697583,0.3416928060217441,0.7473199462487258,0.2211820292297816,0.6821452052665721,0.33009724997906087,0.7316487207731404,0.260747933963557,0.9608029854583586,0.8939322058700725,0.9827560962282446,0.950046357837988,0.6033599779743701,0.21653140063548798,0.8102061115391057,0.3916126396259886,0.704822578714946,0.3742033413002781,0.9817306007901695,0.8044818853177689,0.8524204517302914,0.5287716769757013,0.5931800158604282,0.8622049878415072,0.5386581820249847,0.9581269261788067,0.8650397960993396,0.973040470552222,0.625116145733098,0.8882559043219204,0.4584621565560548,0.771120587810269,0.4630941246108558,0.5051519160231246,0.032500401318980375,0.8681348343948485,0.4620476864956554,0.9651595919089673,0.8482798315195605,0.9715717887673406,0.8713812635958316,0.6122355573637104,0.10799585148266885,0.6668804173354734,0.138092091150897,0.927611885236517,0.7246084919808086,0.9782941351526783,0.9298877268201762,0.5553494941492565,0.11333541184763965,0.6474958140123939,0.2777673163772649,0.9401886414838384,0.6502855842485064,0.8181764345333046,0.5066595038663951
