epoch,train_loss,train_accuracy,train_1st degree av block_rocauc,train_1st degree av block_prauc,train_anterior myocardial infarction_rocauc,train_anterior myocardial infarction_prauc,train_complete right bundle branch block_rocauc,train_complete right bundle branch block_prauc,train_incomplete right bundle branch block_rocauc,train_incomplete right bundle branch block_prauc,train_left anterior fascicular block_rocauc,train_left anterior fascicular block_prauc,train_left atrial enlargement_rocauc,train_left atrial enlargement_prauc,train_left axis deviation_rocauc,train_left axis deviation_prauc,train_left bundle branch block_rocauc,train_left bundle branch block_prauc,train_left ventricular hypertrophy_rocauc,train_left ventricular hypertrophy_prauc,train_myocardial infarction_rocauc,train_myocardial infarction_prauc,train_nonspecific intraventricular conduction disorder_rocauc,train_nonspecific intraventricular conduction disorder_prauc,train_nonspecific st t abnormality_rocauc,train_nonspecific st t abnormality_prauc,train_normal ecg_rocauc,train_normal ecg_prauc,train_premature atrial contraction_rocauc,train_premature atrial contraction_prauc,train_qwave abnormal_rocauc,train_qwave abnormal_prauc,train_right axis deviation_rocauc,train_right axis deviation_prauc,train_s t changes_rocauc,train_s t changes_prauc,train_sinus arrhythmia_rocauc,train_sinus arrhythmia_prauc,train_sinus bradycardia_rocauc,train_sinus bradycardia_prauc,train_sinus tachycardia_rocauc,train_sinus tachycardia_prauc,train_st depression_rocauc,train_st depression_prauc,train_t wave abnormal_rocauc,train_t wave abnormal_prauc,train_mean_rocaucs,train_mean_praucs,valid_accuracy,valid_incomplete right bundle branch block_rocauc,valid_incomplete right bundle branch block_prauc,valid_left anterior fascicular block_rocauc,valid_left anterior fascicular block_prauc,valid_left axis deviation_rocauc,valid_left axis deviation_prauc,valid_left ventricular hypertrophy_rocauc,valid_left ventricular hypertrophy_prauc,valid_myocardial infarction_rocauc,valid_myocardial infarction_prauc,valid_normal ecg_rocauc,valid_normal ecg_prauc,valid_t wave abnormal_rocauc,valid_t wave abnormal_prauc,valid_mean_rocaucs,valid_mean_praucs
0,5.14348344493118,0.4863750858713075,0.47041618280516384,0.03962751877047485,0.5194678311957406,0.019187530008015992,0.8697183783415829,0.5398138616028952,0.7959586942417253,0.2701876478179464,0.9000740983812077,0.30652696308378213,0.279577413062575,0.013894721842666623,0.582980734544602,0.44259881978322735,0.9374444578434245,0.22810502430096785,0.6078269040424,0.16905445382389905,0.6351527790753597,0.5189373017582222,0.46046208824928253,0.03911077343033413,0.5713607455247369,0.024662949262387494,0.8764314639230245,0.6528965921981983,0.5884982462237791,0.027503285550721027,0.5102043969551617,0.028173494728319707,0.3013021687719991,0.010946483710230546,0.7467768225136926,0.09262771866498914,0.5804627445936951,0.04305546714294438,0.7595651958599514,0.147343301054635,0.6761945823442943,0.19683077957203093,0.6712387467459491,0.09968855560873435,0.7941466742287413,0.26289964482201683,0.6425118795212769,0.18971240402443812,0.49793956043956045,0.8320965674405355,0.2801844806773282,0.9019882401263406,0.32682044666066773,0.5924603174603175,0.4349156751024968,0.6036270623892708,0.15016795888648482,0.6426832636296929,0.5237079688389712,0.8709930578044043,0.6421261295539774,0.7808159014507644,0.2426982947277824,0.7463806300430466,0.3715172792068155
1,4.697047790965272,0.4798870315243111,0.5204043117107136,0.04439501643521593,0.5366268581903171,0.019693140512745715,0.8909329623956697,0.6904577598907055,0.842570101867331,0.4547112073101278,0.9020200265154544,0.306328653786648,0.4528658385247693,0.021892769976308717,0.5586486392518402,0.3405278993190758,0.9577585486075543,0.4290749739895233,0.7067775599458895,0.2977900491433514,0.6873786572603139,0.5758528763804005,0.41984716093398405,0.03206800999783692,0.5860149781104421,0.023441247835485124,0.9205000315818284,0.7788841928562329,0.508688852202624,0.026369569193481907,0.40308422551501444,0.019645058794072315,0.33898400699517667,0.01250943283871615,0.7854744125371924,0.14375804969176137,0.5925096412365114,0.052121089743201385,0.7606408573928258,0.3740106255581653,0.6417267897265487,0.11164710033015021,0.5862122650539335,0.0647766621999634,0.8106865625502042,0.3417974314267733,0.6550160585502791,0.23462512805499738,0.49954212454212454,0.8490925183632776,0.4555284556837987,0.9015057499793167,0.3312788047939231,0.5701893778344671,0.3462061020751213,0.6998545910421642,0.284683689755294,0.6761839284315887,0.5445284994301933,0.9067352453044042,0.7362781087756174,0.784734305721529,0.29903264459076173,0.7697565309538212,0.4282194721578157
2,4.475173553740939,0.5340813678345164,0.41470231009882885,0.04630890608381011,0.5668529592618821,0.021611693129833458,0.9053848950750657,0.7001302017764897,0.8660233262454003,0.5100623422882232,0.9335158204710886,0.6472123495551971,0.4353518872501254,0.017966053847597776,0.7781003403534491,0.551308689839741,0.96638436369855,0.7966862936357159,0.7172107654853996,0.3334837362330774,0.7646688674340737,0.6248089701990417,0.4214742853803025,0.03642174315803036,0.6635800462496896,0.033703532383382785,0.9246790233494985,0.776198131308574,0.5386735585161532,0.02939760293164563,0.46679107424282484,0.022335943294951473,0.3973615179177176,0.01301368743007793,0.8301999634953717,0.16891497906984093,0.5929262260750479,0.0500764238510414,0.802811308374189,0.2781751887353314,0.8468693467833088,0.416486307889027,0.7126106768035484,0.12040997447534951,0.871989298284902,0.4540228834160432,0.7008255391293825,0.302215256115092,0.4981684981684982,0.8663987628949885,0.509922453933967,0.92639096637871,0.6094930529891103,0.7716739299886622,0.5226691944574731,0.6962501811365883,0.2759672319692207,0.7583325971417559,0.6096595464280447,0.9107786188471503,0.7383780033132977,0.8382414366923908,0.36348547922228847,0.8240094990114637,0.5185107089019145
3,4.319418106249439,0.46805587359743533,0.44286248427281877,0.053950573832890904,0.5108478826611645,0.0202304102069266,0.9326252932391451,0.7903086799048566,0.8814339567241436,0.5846622830209598,0.8632597995601539,0.41472497174516293,0.37764016877177253,0.014977891732272184,0.6468505641171328,0.4456561471692887,0.9672215665125597,0.7066270932437551,0.6274822786064544,0.2592861686474613,0.6844244946188901,0.5664699449154564,0.42936520068376643,0.03473511737145023,0.5083171422920493,0.021712729613997808,0.9345909170661184,0.806442625336684,0.5304723926420447,0.028779650374823454,0.38090962555592234,0.018655092306453527,0.39815908979568204,0.015609836662161987,0.7628172178373424,0.13391573652166958,0.6144806245470487,0.07061907920432509,0.8600286402878885,0.4673651157855817,0.8083619091138815,0.26423728086827214,0.5327371534167047,0.06388890130417622,0.7998994698433872,0.4267196302748682,0.6588539941893669,0.2822534072747043,0.5041208791208791,0.8618298166724317,0.5476041080424328,0.8429172423235378,0.3821163056295829,0.6302765376984127,0.4162792576220513,0.6229549609772104,0.2034875792792305,0.6698657325905091,0.5389487095087309,0.9132026949077073,0.7561059471480459,0.7474248651425637,0.3239737894357739,0.7554959786160532,0.45264509952369264
4,4.200357597972153,0.5302648652774598,0.4394726003834282,0.086448439362917,0.5439332144324669,0.02797927390634513,0.9176213712969209,0.7133106206166361,0.8584343640040348,0.5124450148744544,0.8340357679471281,0.43604767023115343,0.396257516154809,0.015393783006646953,0.6747599863874131,0.45673342188826815,0.9204913634703937,0.6738068847546236,0.7646538642010537,0.3804168001617843,0.7012165364579162,0.5060085096059893,0.4411065570216919,0.034189071296602286,0.5414265955561152,0.024371599297097674,0.9395212756251449,0.8323217386409417,0.5170477893404116,0.036324204524636514,0.3394351333600493,0.016805832743607793,0.4122103095721986,0.018408898382727953,0.7871568799816404,0.18067582633042858,0.6214509039908375,0.0735197827014854,0.8195260527575563,0.3955200406793741,0.7981493537428298,0.3603481401963216,0.5182667026093616,0.05712965714511665,0.7920159156520342,0.3939750696174336,0.6626450024520653,0.2832809218165724,0.5176282051282052,0.8533603271817201,0.5011183838032016,0.8086655669698521,0.3959927421449591,0.6494071239606953,0.4183587391072448,0.7302286290750181,0.29863541984448483,0.6801717644101489,0.46020081509822763,0.9190267770401556,0.7667509156485522,0.7281416477735959,0.27282274474410184,0.7670002623444551,0.4448399657701102
5,4.108855452048725,0.463323410426685,0.4958829106308477,0.1345139655580581,0.4559964796017986,0.018083415361898066,0.8973475506692026,0.5732040296616778,0.8051101786822128,0.351722092373852,0.748472090180633,0.29224190819303897,0.3702984604284927,0.014988815352008363,0.5213004932042404,0.30470776089656404,0.9555549299585833,0.810848054508373,0.6555761646809075,0.317246371104262,0.6098908414518138,0.4008364907436382,0.4223101265314656,0.032569441988210476,0.5556467667990466,0.023614234005246336,0.9397306140209282,0.8262240633632497,0.5219530710519457,0.03920101186293162,0.34695979701078467,0.016951515468707195,0.37908342698338937,0.017078421948637942,0.8195096099775739,0.19588386512229172,0.6237983430455358,0.07462086035813904,0.8338574423480085,0.39412827528121125,0.8185623554282192,0.42228437437474653,0.554921479536756,0.06691398239491197,0.8249884986685231,0.4428217119654608,0.6434887104950412,0.2623038482675962,0.43223443223443225,0.7824363643762589,0.33780218051256244,0.7131698577642475,0.2763965850387874,0.5103756259448224,0.2790436925480411,0.6329803506360184,0.23569038621707555,0.586956115829085,0.3465576843016231,0.9176537706444301,0.7599063267542593,0.7485545404795675,0.2842178651849647,0.6988752322392041,0.3599449600796163
6,3.9900811045563462,0.5281276238455079,0.6262016858569235,0.18067324261564782,0.5861976639476837,0.02878997953343238,0.9270123997325267,0.7872390450675499,0.9023342820744754,0.6093450312280798,0.8958016026761394,0.6361925654293209,0.4319743193478012,0.017433381326961227,0.7486656414143182,0.5886183748522346,0.9610871913641847,0.8511610537843881,0.7130387608098412,0.3660304048878732,0.7745489180714036,0.6469861863879289,0.4512612522636194,0.03727377672999263,0.5276611878327319,0.020377984446024566,0.9303311740720205,0.7729264444016546,0.5700045469482203,0.06845841208365772,0.4164615552140574,0.019945680371958506,0.4347019107580533,0.016157916720153535,0.8421159733247799,0.21095917111955326,0.6540359371768513,0.12083722617543238,0.8910589890886281,0.5693129732441381,0.8120689534301612,0.4142010318562142,0.5842767639593744,0.07763757274705857,0.8466053728865544,0.48283874008204486,0.7057930037386524,0.34197255432233176,0.5004578754578755,0.8775896799397725,0.5614566213448289,0.852025982716749,0.563885089250575,0.7015219021636432,0.5168662474037377,0.6660268820577337,0.23991086368314088,0.7311591854274755,0.5550599722358432,0.8931691224093263,0.6794761192613213,0.7702825025966339,0.321774706306493,0.7845393224730477,0.4912042313551343
7,3.8727337001580406,0.5126326234638577,0.5124424413430648,0.1695152242634655,0.5419792185765119,0.025921718042399053,0.8700172420414406,0.6064146008943405,0.8264701146540252,0.4923081342697537,0.8631778914339258,0.41874355822653403,0.36671031283671285,0.015017782306659525,0.6104712098050952,0.40045911432669257,0.8670103855166644,0.5764060866017391,0.6907112973958476,0.3632112913766406,0.7463359915753998,0.5876195061683621,0.47114505500928244,0.043621542076095754,0.639424883263676,0.030855984729552123,0.9575669499673655,0.8782119451190291,0.5555532871626455,0.06215288461775105,0.45188742594037756,0.022142641122091442,0.43530018245059804,0.03244988254867355,0.8317398347360327,0.26517859199489924,0.6405215218120484,0.1098742556193934,0.7927058056422194,0.28274268117706514,0.79803447703374,0.46409046223774353,0.6260525935389101,0.07735287757663274,0.8891420736961506,0.5986465237833645,0.6811090997923516,0.29649714950358536,0.49038461538461536,0.7842330152399943,0.413921738633544,0.8394402382139519,0.3565289535619094,0.5860000944822373,0.35460015312271886,0.6437344507078068,0.21629825262199512,0.6979190906413004,0.4858789014759693,0.9208790833468264,0.7817340059107346,0.806762695585164,0.3625805906353659,0.7541383811738972,0.42450608513746246
8,3.7285491506631714,0.4940844210365621,0.7675309415635282,0.23913434748953213,0.5806362070623617,0.039231712810802816,0.9325804616238901,0.7448955907102582,0.9155518760921967,0.6365067535112849,0.8216232400885173,0.2878594143032515,0.5065316725476944,0.028932771318178233,0.6878938644741078,0.4838141332270415,0.9808708085761502,0.8644309454627247,0.7203370378020577,0.4333716328009731,0.7467533113811232,0.5534621465385012,0.5541034333152747,0.06047039303452799,0.5697577811098967,0.024480744646302295,0.9593310687992589,0.878401747506763,0.5731519693316182,0.08793874423405103,0.37604998015920704,0.01855932310861063,0.5677587228161227,0.08072030444920579,0.7999250279488559,0.20705732243520608,0.682607191954021,0.17922773465710606,0.8762914954026972,0.4902222043595811,0.8107473932865477,0.3191179451399271,0.64198497439083,0.11911774257246195,0.8256164470257191,0.531744635682277,0.7226197684887127,0.3322135586362986,0.4983974358974359,0.8582243066718214,0.5191584109325629,0.7441436751691827,0.23585426364455506,0.6369227725812547,0.3952973923808824,0.6465324210896843,0.28031999210331116,0.695552780477147,0.444055896774391,0.9125893073996114,0.7405145484596912,0.736078971174572,0.29781856282860936,0.7471491763661818,0.41614558101771476
9,3.590128255303548,0.5070605297305549,0.6065307170625582,0.14767223260894316,0.5255891858496312,0.023913210390985064,0.9659044440492376,0.8175001200353165,0.9386004252759794,0.6703755569765798,0.9047155874118555,0.5334779041306941,0.41567645837541467,0.016139619776489603,0.6420246680962554,0.4354968422561074,0.9698884303823317,0.8472249529369248,0.7064649207745953,0.30101106818009005,0.7167352960824475,0.518320580220254,0.5487584977049893,0.052698868721085916,0.605095883586014,0.023323106251438595,0.9695421477047029,0.9191336337513668,0.5688209358220471,0.1039501717352497,0.3656208108090875,0.017763501250615835,0.4895732971896076,0.04435669234631776,0.7736785190394451,0.16670183897435548,0.666531396801838,0.21509198830071793,0.8377410076098978,0.36293085609767994,0.7713708121385009,0.3120855551552183,0.5311199926030976,0.0489317763964954,0.7919878621398075,0.47451358442781283,0.6959986952958791,0.32057334822366995,0.4416208791208791,0.8898829023134678,0.5095073496459537,0.8504013307649336,0.40959595593176756,0.5883343962585034,0.35462888078660004,0.6360006817953425,0.16711592712487297,0.6526955619770658,0.41019618796147306,0.9112663941062177,0.7658922352153013,0.6868205474709345,0.2310663266726584,0.7450574020980664,0.40685755190551814
10,3.473757562068808,0.5453782154034044,0.6813640775836588,0.24834951644110156,0.5586246113136506,0.03197764340092284,0.952047189560431,0.7741462833080587,0.9334842084325882,0.6413003736902536,0.9504956790359212,0.6876110794703072,0.4357040380950801,0.02088325440625894,0.666101301196323,0.4356084568333444,0.976589414310979,0.892819574078006,0.76636454431811,0.44158593662922124,0.6952826977701776,0.5543658842083912,0.6066071994576627,0.09368901617492376,0.6190108260408063,0.036015995484523625,0.9746630218897162,0.9240666007462583,0.5876110686830901,0.15121177123864415,0.4286038016823227,0.023459917344433985,0.5451966057359856,0.09671674187952707,0.8160144931426325,0.3450368099913577,0.6987843091591313,0.2581432112722059,0.849511381831988,0.41230011922556803,0.7993275968270447,0.4498962974503136,0.5739741030279116,0.07220168567955494,0.8419721010559318,0.5599987601928325,0.725333375915961,0.370517496779364,0.46703296703296704,0.8720786619732639,0.4777574165151637,0.913775203520787,0.5344376427410444,0.6171807090891912,0.3619273913785672,0.6750412380692755,0.21432397955359983,0.6177248363912919,0.4223143634355989,0.9156781290479276,0.7535016270550391,0.7281913467874334,0.27818753970319,0.7628100178398816,0.434635708626029
11,3.3305160744883033,0.6897183421112892,0.6228248036424071,0.26578059063158677,0.5856348519421932,0.053837172196813665,0.9571230514111493,0.8636270933730724,0.8948269534043389,0.7223410029919017,0.879064085979812,0.5653535435675843,0.4679002213604218,0.03626408295565112,0.6812595055136017,0.5059572685286251,0.9317928661496527,0.6741706193844789,0.795939780095923,0.5691487635079719,0.7827962340488837,0.6775975263249137,0.5979992639523894,0.12624716190869106,0.64735433024523,0.06832564030625393,0.986093454139676,0.9611837274619347,0.6642415187329693,0.2513720778606044,0.40429171802628006,0.022984801764827652,0.5632961801168931,0.07444981748158906,0.8719937365036887,0.4737844782157282,0.7501399912755282,0.3394379305238438,0.923161697948134,0.6375295791228927,0.9085331248026304,0.6034505232938068,0.6888725453809079,0.1693903829786806,0.8472761926089644,0.6536239482074983,0.7478370957855307,0.4234480787540431,0.5682234432234432,0.8298624534559587,0.5047464393098259,0.8029086321807017,0.41416681130597216,0.6166315310846561,0.40881766840739603,0.6930038803482487,0.2901060912310698,0.6942318159054726,0.5225199442935803,0.9129690535945596,0.7357673616271795,0.7114042484280594,0.28463658199339387,0.751573087856808,0.4515372711669167
12,3.1932110756228473,0.7132279978627586,0.5429856367832725,0.18184877151408,0.6151425936125755,0.06172313366122102,0.8971308507936268,0.688376719741452,0.8934561724214684,0.6404890085894578,0.858827983344006,0.5748532256772837,0.5438407069791025,0.031645778647292025,0.767063184531076,0.5810856130008483,0.9727880723494493,0.7544494864706549,0.8420758178347005,0.5957190410393707,0.784646048343342,0.6806366044879991,0.7545135903869356,0.2545945224553972,0.7469341958213769,0.09365590568028583,0.9875200965702134,0.9649284231836179,0.663841700872217,0.22075186235569053,0.48437004133457656,0.02988288975980191,0.6188211375475611,0.0871992477770471,0.8605231301108156,0.4942543817451372,0.7424238737697539,0.40433702431055035,0.8780694423810231,0.511289498415207,0.8774510085091617,0.5259835387330676,0.6083962656060967,0.11409596268517093,0.9081453159762622,0.7160792466032107,0.7658621302672096,0.41853999484244747,0.5494505494505495,0.8172289254684925,0.4496771663466877,0.7721097998215005,0.4073750163428934,0.7034719269652305,0.46186966176631583,0.7010249693664021,0.26981346580072046,0.6792528022424071,0.49630784770644754,0.9113775856136658,0.7416815741091692,0.778878198326986,0.33021319982497843,0.7661920296863834,0.45099113312817324
13,3.0713609842005307,0.6330051141134264,0.5880304642970777,0.19445276686112795,0.5673673220785505,0.08323937906123927,0.842874707008088,0.5501900801772128,0.8061653177493524,0.4949094101186062,0.8643466557421577,0.42323352175553797,0.39555558385662337,0.023814835798745403,0.6880172818590047,0.4946248781511743,0.8660461841829384,0.5112898201141955,0.7700440393195845,0.5332247549442481,0.6725534894079929,0.49547660815038125,0.5906082797648887,0.14072065377542256,0.61138096179918,0.06531467515591087,0.9790294693550992,0.9367932875652284,0.6115403636382641,0.15769352519508414,0.4067764769128217,0.020130217720189275,0.49776909978667083,0.05360548625645073,0.7800218692248537,0.3573653168175279,0.7035146412973394,0.3201882132829051,0.8154257250862511,0.4555144396202676,0.6721174948146151,0.2848879379206351,0.6010230645314623,0.11074166382876034,0.7749046423998716,0.540144905058138,0.6865960515505768,0.32943438078768134,0.5281593406593407,0.7256933281787291,0.35000563287815295,0.7955233846647206,0.3097281515490507,0.6123718584656085,0.3643023016097501,0.6727948667695283,0.2301771176151185,0.5965222402778818,0.3459722587589699,0.9053832375323835,0.7229586723125117,0.6351827136778387,0.2112513390447334,0.7062102327952415,0.36205649625261244
14,2.994957642940681,0.6085031676971223,0.6739082227114226,0.12141837055716945,0.5130892951335158,0.07482099778208132,0.8535344536732009,0.6337682178110047,0.8201566843628201,0.5593250732815737,0.753575827057992,0.4521286677415968,0.38653412486812855,0.026243663926677135,0.6825278336172735,0.49787238012282065,0.91016719265833,0.7048352970639366,0.7274919795545802,0.4571593951415778,0.5976781168444922,0.47241175131699487,0.5912916607925228,0.1572423504206348,0.5717082341282741,0.0635986548498615,0.9883397924021138,0.9700752952524784,0.6063737630634932,0.14907142196364725,0.4235195065160696,0.024681603805623696,0.5478131165501546,0.08666909592423372,0.8044090075170008,0.3950111986933543,0.7554985896595892,0.41727037759883173,0.9029754535400056,0.568385477512451,0.9022039917186802,0.5242046893055196,0.567824646530944,0.09406972534164507,0.8143985107905614,0.6247000597572374,0.6997736365314166,0.3670438075077705,0.5309065934065934,0.7489378802368405,0.3587854322736084,0.6551187518807231,0.31446045688810065,0.6122540509259259,0.3844195031070132,0.6075601553915965,0.17174474507295462,0.49512873412856884,0.3276433487159654,0.9001032221502591,0.7418838856662826,0.6569961134254347,0.23843829188332472,0.6680141297341926,0.3624822376581785
15,2.834266573761667,0.7307075795740783,0.6847887671989548,0.31920010494649526,0.5774755349810429,0.12055995617106727,0.887090711663983,0.7071546978841827,0.8760815412228816,0.6646578901992577,0.8482057025182489,0.4911516551695771,0.4910228190193443,0.044962940100986906,0.7028860959160041,0.5170695631855156,0.9718324846456792,0.8023686130826122,0.7625914724785594,0.5012896148004043,0.7163786476465671,0.5966385694539409,0.7097336676590892,0.2506475710347289,0.6672660602696826,0.11603879139011151,0.9968878564360256,0.992067632419522,0.6554210271529898,0.2715610335727835,0.4359591196279643,0.02592491771861522,0.5918027870850511,0.11016160789615534,0.8555731964767666,0.5543742230138928,0.7615997240147168,0.49002951140875906,0.851848825500586,0.5289588915424193,0.7902547267543554,0.39588775786511665,0.6165609873302001,0.1469743875910945,0.8359348452614515,0.6710867280817346,0.7403271182209156,0.4235803026604079,0.5432692307692307,0.7919344008789957,0.454049581021015,0.7558841467209341,0.33951285821945026,0.624828160430839,0.39198283563814246,0.6242857943942876,0.19133851271278746,0.6152342329362173,0.4213846153555927,0.908235508419689,0.744498994354527,0.6810420598845196,0.27470190218851226,0.7144920433807831,0.402495614212861
16,2.7405164562630366,0.7558964964506526,0.6805546627559351,0.29283281221081825,0.5729768638730791,0.12403249110262823,0.8816709484705084,0.694480638129471,0.916538345875344,0.6869670080467124,0.8595323161597155,0.5792953960062814,0.47779598589501104,0.0629597926707961,0.7583107770923375,0.6181235931639488,0.9750271959609219,0.823153661381178,0.7393885059584716,0.5315965746505504,0.6673661797262843,0.5885858583906123,0.7226528767996958,0.30992767833766555,0.6705996240074076,0.12483521046509584,0.9975270726452239,0.993043226277432,0.6696142345611182,0.2770112398922816,0.4581707524639126,0.051159552710490525,0.6323579624321006,0.12693337081066383,0.8651965948697578,0.595425267929796,0.7857742447335995,0.48812626444995477,0.888782210006768,0.5855782145797418,0.7920685359863638,0.418977919033816,0.6289296369657593,0.17519106892436273,0.8925794504675991,0.7413239485660483,0.7515188626230416,0.4495254903513794,0.5608974358974359,0.8335483345880724,0.44232622026094437,0.7441048709540199,0.39164129239648604,0.6732110378873772,0.45831509701652495,0.6111623444654375,0.21637590663214937,0.5873900276092743,0.4274122515224437,0.9051722393134716,0.7206050632115535,0.7439375579356482,0.300886663526009,0.7283609161076144,0.4225089277951587
17,2.680528152608642,0.7290283184489733,0.6785936710107874,0.251872778296099,0.5619836336454481,0.1151286796508703,0.9086350223589439,0.7012472607233317,0.8999811751445607,0.6703706579712092,0.8385124131272909,0.5668566840574315,0.5205350738095139,0.0461975626473324,0.7191963520024733,0.5741718601313244,0.9341532108461148,0.7108535568416907,0.8116368693339001,0.604906616776322,0.6610408119573318,0.5336210995065891,0.6868636857166621,0.21264420810279172,0.6382368178461661,0.07942638167967495,0.9973201485047759,0.9934654577183483,0.6813481048176092,0.24877761791440875,0.4480691156107555,0.03594754618886366,0.5642255053762801,0.048008080312359605,0.833626969672975,0.5278370482015532,0.7658909649578636,0.48208857186575205,0.8841847009689826,0.5784997872068803,0.8170895117405271,0.3661531694924081,0.5940880778341662,0.12245725687038539,0.8652277628754058,0.7111849984006656,0.7413836181435698,0.4173507672980133,0.5428113553113553,0.8071255620892426,0.41723780362283147,0.7323303541946258,0.4045468294915492,0.6385425524376418,0.41886941086141055,0.6658858592425743,0.2524811324329902,0.5654514257081442,0.37067179894448166,0.9043639187985751,0.7383982254242625,0.6864156959537185,0.2623211577944955,0.7143021954892176,0.4092180512245745
18,2.606166952512217,0.7832226547591787,0.5881380309488315,0.25217383121203785,0.5876678964746476,0.16744402689919463,0.9134259479785144,0.7011451085615851,0.9183085926585433,0.6907198735173852,0.7839574050340999,0.5437110919286039,0.5325161992350418,0.05595019485200546,0.7373051187954127,0.6023090384640224,0.8308266269571323,0.516285160172858,0.7827361031679416,0.5953272841785376,0.6750844314984799,0.5848194957179589,0.7176458583352415,0.28976310684772894,0.6343697880986778,0.12447984205812981,0.9985862289191295,0.9961344205969435,0.6728794137572622,0.29564333799705306,0.4360427501644407,0.05941655490855489,0.637776181067002,0.05990949523432371,0.8404846727534555,0.5720158995553296,0.7866990039851024,0.5300982830470997,0.8832633833506661,0.5768732783424269,0.8126148966253015,0.39234327522665,0.5821349179373582,0.1526543920059026,0.8536943615483104,0.7231889297127636,0.7366435367859361,0.4310184509562317,0.5657051282051282,0.8421439762345616,0.4834988488806065,0.672440807098389,0.36713202215916474,0.6520983914399092,0.4332775985389406,0.6297568133729604,0.23497461788128052,0.5963717506431341,0.4354996192421472,0.9016674931185233,0.6997220821622661,0.692258401367002,0.3011071940446247,0.7123910904677828,0.4221731404155758
19,2.534118542279208,0.7594840088542859,0.6868561142596878,0.26884409465579784,0.5590315116438336,0.10236358089521093,0.8822264814088071,0.6687077179002208,0.8649620898194234,0.6199487081984546,0.8042364527042013,0.4504610031729343,0.47436510667890064,0.05271627213607975,0.6825870784857664,0.4706980690235398,0.913079229849043,0.45919934895507486,0.6993627521798776,0.44254398789030974,0.6634715954456476,0.5539340403148796,0.6387289979957795,0.23482650425067422,0.6108295310905634,0.11255146008576,0.9988344199821739,0.9973315863614575,0.6937983154079481,0.2816724870967766,0.41490997577412203,0.05276136396410824,0.575755596364052,0.12191634746562546,0.8276941287942333,0.5343921428260066,0.8273195885247127,0.5564469997275375,0.9150931015698509,0.5689660406708508,0.8859476627449255,0.5246031461748756,0.5568598456287301,0.1307296922513289,0.8343544162678728,0.6656086724554346,0.7277410905736432,0.4032374212033153,0.5256410256410257,0.7606985166948134,0.392845614142786,0.6760122592033714,0.28884764096195187,0.6219508810468631,0.35707502807972324,0.5807952465317548,0.16312177950888884,0.5620171965062996,0.39445392799469753,0.8999028497409326,0.7358932553974644,0.6746643920526251,0.2717211500501102,0.6822916202538085,0.3719940565908032
20,2.513217388241448,0.8268834440119075,0.7168634953347406,0.2909075710789826,0.6262145082370907,0.18854845044466376,0.8810559147487279,0.7187770864165182,0.8547378254095295,0.644035316133174,0.7550375852542422,0.4865289851659597,0.5333016525914926,0.07430976237831687,0.612423770094625,0.46397701489684184,0.9246374607186961,0.5507841610842471,0.7266816966689631,0.5126283296107512,0.6940221106315467,0.607975096641445,0.7010069112044623,0.28470113387740464,0.6001167534333105,0.09903318719731165,0.9995089516938387,0.9988127836292428,0.665360616764781,0.3052541105604551,0.51293440668181,0.0869122430208551,0.5505988655106019,0.14401040392224604,0.7818465973526092,0.5152701079699796,0.8083535948473479,0.5492158382735208,0.8805615394773767,0.5236464368125343,0.8510239482089271,0.5018062452663008,0.5292401636173978,0.12140833700914008,0.8340637185934542,0.6933849751040351,0.7290723675943444,0.4255421625679057,0.5547161172161172,0.7441318900441533,0.40638967075741045,0.6282281629279172,0.32934497211590685,0.5352817342214664,0.3342599491500839,0.5854867535715138,0.17429659823236635,0.5925210274428996,0.42170103151970206,0.905982330796632,0.7237640424525569,0.6754082020125308,0.2801005363257785,0.6667200144310161,0.38140811436482924
21,2.4490384155353073,0.8477215479734371,0.692763719997222,0.2848027411217045,0.6397212678096305,0.2125348985329424,0.8543150100038782,0.6496305586950023,0.879377903645155,0.6708231223485348,0.7312644045694545,0.4508717734247494,0.515229709565886,0.07104646705674424,0.6999849230130141,0.5457090964232322,0.9276142051783463,0.5992434853358525,0.7134775421558432,0.4820503231492091,0.6996182510573272,0.5808415387553956,0.7279892219764805,0.3088899258013506,0.5745877187159312,0.0931447444549331,0.9995714696779354,0.9989236194885065,0.6862749453353604,0.30731669512174276,0.43115490092111314,0.0679623032983883,0.6100704862033798,0.1795238466444902,0.836448529145322,0.5601882384391204,0.7862626066010536,0.5172451764461143,0.8688956775450238,0.5444728301153475,0.792098011979681,0.36454276378937644,0.5556978938362185,0.1350158626661429,0.8166249008086227,0.6618864016593443,0.7290474227155397,0.4221212005803738,0.5444139194139194,0.7678047490182515,0.45532763693412037,0.605541608002747,0.2872715991197296,0.6308205487055933,0.4009207399825,0.5773238089263001,0.16711057082158973,0.5977651731870945,0.37819373553672675,0.9014099437338082,0.7232046322674995,0.6220052156043735,0.2527884460300027,0.6718101495968812,0.38068819438459556
22,2.3961746673549045,0.8490954888939776,0.6770871725960227,0.2812025968051009,0.5628123697700376,0.20834891458913782,0.7890426505242085,0.5487058501078194,0.8032733937307311,0.5753788662236232,0.6124650809344772,0.25278587510070205,0.48658820623422505,0.058590706630535894,0.5958429457472751,0.4310039573946351,0.811727688282396,0.3647161105219949,0.6749143630148517,0.49155116270372484,0.6401640832392707,0.5385446641216616,0.6983307101735461,0.29155026290292574,0.6192418007403508,0.11641321590632316,0.9994334921782339,0.9987250491338208,0.6865529232761284,0.3113320235717785,0.4814759587958969,0.07839071061412856,0.5204262277559467,0.15845380670184708,0.8319285650057509,0.5678056381375716,0.8209462054630488,0.5678906845181161,0.8883055596823982,0.5850535529330646,0.857682734428948,0.48935835632221597,0.5301921241221061,0.1359539278500766,0.84632529416633,0.6949943046451752,0.70157997953919,0.39757955624708996,0.5643315018315018,0.6896992695383238,0.34234887193036107,0.5023956111700496,0.15521817973908136,0.5244059429327287,0.3146908405607789,0.5439644178339451,0.17613460158141833,0.5395652577399745,0.3727350734159171,0.9092692478950778,0.7347844422188307,0.6964537799171311,0.29340085635974034,0.6293933610038901,0.3413304094008754
23,2.3592456853869272,0.837951301427372,0.7019601841877021,0.3539523609989858,0.6326125332587289,0.20917549919717487,0.9005819786466358,0.7305618732877671,0.9307296229819518,0.7696426284019137,0.6340216898541308,0.31917381992798166,0.5574025128583927,0.08501643829602427,0.707657383904292,0.602176435668254,0.9087442630073164,0.66870867388065,0.7379109172380773,0.5880630988253683,0.710759551319043,0.6515211284246822,0.8083457426293279,0.4626735054030093,0.6977944140394292,0.16256383885798995,0.9995848042277541,0.9979539619725899,0.7180777776398595,0.34620959058748796,0.5338941566044334,0.1264266212234316,0.6510327980558397,0.19972680583971178,0.8373059517306818,0.5799099936504387,0.8282163669005358,0.5676547065763216,0.9055021129434291,0.6188654401574087,0.8883753692863974,0.5600375593408985,0.6057443198170569,0.1988510128186298,0.8577467857125471,0.7254081426398264,0.7615455107656164,0.47837605163529756,0.5613553113553114,0.8323559932447555,0.4847803141539967,0.5182994821467664,0.214389814913439,0.6364403226568405,0.432988951654791,0.5836889902821956,0.2082697185414547,0.624106154273613,0.4899796062836157,0.8983314948996115,0.7083191598253585,0.6970819977886731,0.2923326962304402,0.6843292050417793,0.40443718022901376
24,2.346072556362672,0.8758110067933745,0.7750567309105534,0.415892857623,0.6643418341624338,0.2254244443835321,0.8977377258207193,0.6864452738270348,0.9418201859280061,0.7553621821104063,0.7730535195318126,0.5176607754140751,0.5624223653992988,0.08958748965910368,0.6880836354654678,0.5943054458321527,0.8960378982910977,0.5890087437371497,0.7576082595961778,0.6045119406718173,0.7346112108366153,0.6812666554319273,0.8251473460056412,0.4934266432239704,0.6971921688969128,0.19231069738547035,0.9993177482858083,0.997236303492286,0.7423347011198166,0.35403714707623446,0.5663727253597708,0.1109174034569042,0.577805010933675,0.16266883612411634,0.84234345620988,0.6063287425215154,0.837456138673915,0.6009808411117298,0.9131103600257515,0.6228444172453352,0.8511205816680991,0.47546372982026425,0.5818652174988832,0.17819884624884536,0.8666160161821909,0.7520950902537538,0.7723388562182966,0.4866352048477557,0.5682234432234432,0.8398539076647609,0.46807309309130185,0.6577171699866236,0.3806218966572185,0.6115389384920634,0.42857511117073094,0.6174017712243501,0.24649521942759955,0.6395249320915523,0.512049935084598,0.9006560172441709,0.6910836112995498,0.6994156177754945,0.2870592894424728,0.7094440506398595,0.43056545088192444
25,2.3361750372620302,0.8681780016792612,0.6471286487464285,0.28744661529622484,0.6240069737689535,0.2351578013285749,0.7674609664146921,0.5191835482219946,0.8200278702576755,0.6047845377320392,0.7140696067502229,0.40506802703126965,0.5669638969859561,0.09539694741791596,0.6808648413064724,0.5540116395236188,0.7940554608523124,0.3649878557544657,0.7609689068195575,0.5664756227556691,0.6852321109741905,0.5981590877396062,0.6955536719045297,0.3220382796499011,0.6447598855460481,0.1352559988743314,0.9998594398085441,0.9996101731681454,0.6925841626396341,0.32304691948704994,0.5144867218742658,0.10776564227043965,0.5346221906838854,0.13846248496375463,0.8210682703650866,0.567853012030195,0.8160469453052088,0.560961208539835,0.8982355684313047,0.5940728535212282,0.825185212802332,0.4175086483154909,0.5893635668696908,0.16263616278143334,0.8069964607542925,0.6712357667755184,0.7227064263573312,0.41959631059903196,0.570054945054945,0.7191039127515414,0.4175823192335898,0.6072460648498972,0.24719619086589556,0.6054362717309145,0.38185552875376394,0.6273216713757553,0.22865644162110232,0.5949724757244892,0.42038036329780654,0.905137072943653,0.7295348921311003,0.6582776778833804,0.26324782246587425,0.6739278781799473,0.38406479405273325
26,2.3063570120691135,0.877795588123044,0.7417979620480303,0.3712876930053633,0.6047183681438933,0.22019080619159198,0.8396305133203464,0.6328632493153729,0.8770070374176561,0.6809394213728811,0.7032953698659276,0.3680643599393421,0.5606906362231422,0.09093737847650532,0.6578450190430165,0.5414425160191609,0.8639218739561225,0.4616054529739299,0.7512331546766928,0.6074239906474916,0.6617581453702044,0.6028253677759305,0.7244095000239247,0.3930116829475375,0.663645061350302,0.16955195927084743,0.9996168071473186,0.9987929092415628,0.7130790744347184,0.3551132094400034,0.5434054746854535,0.13074742171695358,0.595885657364012,0.16594525765516316,0.8311739794473574,0.602105566984675,0.8396668016468745,0.5970091541915123,0.8917619967315408,0.5600090717801738,0.8307427121801496,0.4398806217857227,0.5682056911871377,0.16908448118182776,0.8457549741737297,0.7289355023069948,0.7413293550198887,0.44944395791911557,0.5592948717948718,0.7661841007589476,0.4282492357781658,0.586352557527249,0.2380419525084115,0.5725715112433862,0.37991245224174447,0.607688408424281,0.23823888409183155,0.5763187281284914,0.45378664614284925,0.9014549769268135,0.7120789519133254,0.6924086152402863,0.28772009452529473,0.6718541283213507,0.3911468881716604
27,2.3157257338888124,0.8714601938783298,0.6808629074329202,0.3502986226168603,0.6549434200901665,0.2610713412121226,0.8472117537287295,0.6398918932168967,0.8964467197393409,0.7165268630073487,0.5912811903832581,0.30792667523564915,0.5779560975407492,0.09573250635503609,0.6641395480160999,0.6146280696563655,0.8623743618035513,0.5193257564935155,0.7727140685836138,0.628811165838,0.6798103737750792,0.6318879301358551,0.7727762900181732,0.4460700296840565,0.7106088903701686,0.17985626024879894,0.9989581926772266,0.9958683933759467,0.6981714865842161,0.36225327894902265,0.5712473310577325,0.16486705121415096,0.5977495037907861,0.12049479730137722,0.8433966549950275,0.6181340719975463,0.8235850974898895,0.5840036351175666,0.9192752438963998,0.6865657895001154,0.8730626704230235,0.4860710318315393,0.581649170648362,0.19436738037084753,0.8682766502280794,0.750557401321611,0.7493862556032997,0.4706913611218285,0.5570054945054945,0.7992420697092396,0.43905253977541053,0.48464378096558064,0.20546231811953916,0.5890273644179894,0.4514289717515813,0.622379765557898,0.25145499912400626,0.5898399431260654,0.46479074612850185,0.8938401928837435,0.6804306774051331,0.7225167245557801,0.30627455235785755,0.6716414058880424,0.3998421149517185
28,2.292206285782565,0.8395542325013358,0.6671357229496521,0.28998910467866956,0.6033796405580181,0.22555287811505936,0.7754208444265485,0.5097623134177781,0.8262806821464597,0.5641003847695154,0.6427165393101633,0.3019897099548331,0.5602132037907899,0.08864632728695238,0.6506453053829819,0.5323621989121035,0.8912823342012791,0.5671623660724294,0.7445707225982542,0.5701953002344279,0.5901651124031877,0.5030753093448859,0.7164027342948411,0.31559447796088974,0.616502954080861,0.08641651167102456,0.9998817857067662,0.99972928947454,0.6526089095359827,0.2877749659684053,0.4832971915345296,0.090590846647709,0.5767702829691497,0.15968329392273295,0.831993488218534,0.5763138207754899,0.794094644877501,0.5479449529464285,0.8677258208290002,0.5402183980638557,0.7818934230933097,0.3651099466709843,0.5148481095575012,0.11738411037473691,0.8082888696321033,0.6148544965961362,0.7089144691862462,0.40247504562998127,0.5180860805860806,0.7626060593729017,0.3783345883855435,0.5645057843906018,0.21473206597780847,0.5741198389077853,0.36244005733815104,0.598013910179571,0.20492453339879654,0.4997376185349723,0.34803130792062975,0.8982332061609455,0.7311109450582834,0.6611931672232213,0.22169332225003413,0.651201369252857,0.3516095457613209
29,2.264525069898162,0.8861155636974277,0.6245071880688233,0.30413389106831507,0.5922498054746854,0.22020991402419968,0.7969389071997102,0.5681156234377798,0.8210978087394688,0.5941611507873656,0.6894860365698161,0.3818316338419642,0.5346282157828738,0.09119195596610678,0.6422572530776635,0.5526481348992861,0.8430365524639394,0.42842501961797963,0.7319772800809985,0.5824736727277771,0.6432625291154785,0.5894837043748654,0.7366006899964643,0.38429398687398947,0.6482860992924304,0.15417267507415067,0.9998355218370799,0.9994769450667818,0.6384758054663986,0.34531557971978105,0.5109617315494114,0.10773996994489712,0.5550562123018318,0.14567424030240886,0.8247289665566606,0.5881949578020296,0.8063845927913618,0.5919257004882842,0.8814739843840274,0.5911909919241436,0.7564133388270211,0.38241343622467555,0.5897871306920662,0.1999030050309407,0.8165477384365979,0.7066189490738992,0.7129087903956731,0.4322543244668919,0.5666208791208791,0.7443750381508535,0.4098423984198271,0.5876389538676454,0.24316408368526682,0.5645889432161754,0.38093548873628486,0.6001514607243132,0.21731146989479116,0.5489396472467225,0.4181718669250868,0.9002948662159973,0.6908965416846499,0.6485606830543115,0.27314574192531205,0.6563642274965742,0.37620965589588845
