epoch,train_loss,train_accuracy,train_1st degree av block_rocauc,train_1st degree av block_prauc,train_abnormal QRS_rocauc,train_abnormal QRS_prauc,train_anterior myocardial infarction_rocauc,train_anterior myocardial infarction_prauc,train_atrial fibrillation_rocauc,train_atrial fibrillation_prauc,train_complete right bundle branch block_rocauc,train_complete right bundle branch block_prauc,train_incomplete right bundle branch block_rocauc,train_incomplete right bundle branch block_prauc,train_left anterior fascicular block_rocauc,train_left anterior fascicular block_prauc,train_left atrial enlargement_rocauc,train_left atrial enlargement_prauc,train_left axis deviation_rocauc,train_left axis deviation_prauc,train_left bundle branch block_rocauc,train_left bundle branch block_prauc,train_left ventricular hypertrophy_rocauc,train_left ventricular hypertrophy_prauc,train_myocardial infarction_rocauc,train_myocardial infarction_prauc,train_myocardial ischemia_rocauc,train_myocardial ischemia_prauc,train_nonspecific intraventricular conduction disorder_rocauc,train_nonspecific intraventricular conduction disorder_prauc,train_nonspecific st t abnormality_rocauc,train_nonspecific st t abnormality_prauc,train_premature atrial contraction_rocauc,train_premature atrial contraction_prauc,train_prolonged pr interval_rocauc,train_prolonged pr interval_prauc,train_qwave abnormal_rocauc,train_qwave abnormal_prauc,train_right axis deviation_rocauc,train_right axis deviation_prauc,train_s t changes_rocauc,train_s t changes_prauc,train_sinus arrhythmia_rocauc,train_sinus arrhythmia_prauc,train_sinus bradycardia_rocauc,train_sinus bradycardia_prauc,train_sinus rhythm_rocauc,train_sinus rhythm_prauc,train_sinus tachycardia_rocauc,train_sinus tachycardia_prauc,train_st depression_rocauc,train_st depression_prauc,train_t wave abnormal_rocauc,train_t wave abnormal_prauc,train_ventricular ectopics_rocauc,train_ventricular ectopics_prauc,train_mean_rocaucs,train_mean_praucs,valid_accuracy,valid_abnormal QRS_rocauc,valid_abnormal QRS_prauc,valid_atrial fibrillation_rocauc,valid_atrial fibrillation_prauc,valid_incomplete right bundle branch block_rocauc,valid_incomplete right bundle branch block_prauc,valid_left anterior fascicular block_rocauc,valid_left anterior fascicular block_prauc,valid_left axis deviation_rocauc,valid_left axis deviation_prauc,valid_left ventricular hypertrophy_rocauc,valid_left ventricular hypertrophy_prauc,valid_myocardial infarction_rocauc,valid_myocardial infarction_prauc,valid_myocardial ischemia_rocauc,valid_myocardial ischemia_prauc,valid_sinus rhythm_rocauc,valid_sinus rhythm_prauc,valid_t wave abnormal_rocauc,valid_t wave abnormal_prauc,valid_ventricular ectopics_rocauc,valid_ventricular ectopics_prauc,valid_mean_rocaucs,valid_mean_praucs
0,5.2716868543031605,0.5751469353484466,0.45180555223420565,0.03427633184096029,0.5113397088106881,0.1716522919385836,0.7005648373558263,0.02893874064111399,0.6275455022679944,0.14442077295405825,0.7665722018634119,0.20295002524975786,0.6911109105168629,0.1017819435652348,0.9277453464130355,0.43778887158760366,0.7038617095622531,0.04230295064670675,0.7947055803244282,0.5710506167088677,0.7560761398770782,0.07643374495101644,0.8624517139123917,0.4404069619153995,0.7386618874265608,0.464696227644225,0.8038587386795478,0.27975129905811186,0.5561836644766053,0.04328059016207059,0.6060238886010736,0.02566614999399512,0.49680266130047884,0.01906692027188752,0.5487805060811717,0.024544250103409784,0.5614982334503125,0.028782777821286378,0.5853703927858137,0.01839677348161316,0.7235377385543447,0.08263355564001197,0.5639707971281265,0.04691168321187241,0.5965901527189637,0.03772234342040663,0.7811563581771176,0.9449837783258083,0.4924008798308985,0.06539854534743715,0.6997917272722354,0.1059088113031285,0.6450747133666006,0.16221072631772648,0.7704655324423048,0.14753237210905867,0.6653313731640864,0.17590703911893896,0.6195054945054945,0.4764044087412622,0.15357674322033907,0.6235525017697812,0.134924643050884,0.6801808983728627,0.09173916095364029,0.9262987508628472,0.4196858451238624,0.7825885933518746,0.537727224113594,0.8505757887838217,0.425534846383249,0.7274433904528764,0.43827625569889633,0.7999257681100971,0.27240230673197846,0.7695279328011273,0.9419531209518901,0.6170154045121887,0.1564808432445055,0.759571450427764,0.1442799315272418,0.7284622625624094,0.33787099281818916
1,4.781604501111172,0.5211815891916648,0.4355867363884438,0.032082835442598004,0.4474450174750282,0.15259684513981017,0.704422522056983,0.03355597075160739,0.7140680387711549,0.19222581772676559,0.8464596850172268,0.34478948563029366,0.7788411107637406,0.195682668916226,0.9259552598834419,0.4277669958229328,0.6454661594457252,0.04213210805839848,0.7422117603237453,0.5422337142675983,0.8991741126185955,0.3951306924431159,0.8248805674710166,0.3756011571662309,0.7935806412779646,0.5863668746603776,0.8484434971376122,0.3107807210688857,0.5014955523515314,0.03694791549099,0.533931209917335,0.021530637545580347,0.5320314991117387,0.02255425113267927,0.5180936495197931,0.019356929579530325,0.5914714445369837,0.03232536625060691,0.5523728287841191,0.01690239102942026,0.8041958278950214,0.12254900690342083,0.5814283048650721,0.0566045802481569,0.6790935481587954,0.060789604336403444,0.8068391513463503,0.9532928317731237,0.6785099730980829,0.14690689554914313,0.7107395086124111,0.09702573163563896,0.7831014497218167,0.27807270890184993,0.8456151343884225,0.2334615782045619,0.6935353404051168,0.21219504872873873,0.5805860805860806,0.41615308240815957,0.13486688850943357,0.6932204968971141,0.17423199758913008,0.7341002912989519,0.14023111206324312,0.9240487110391334,0.3834214267074567,0.729564354339659,0.4997055269659418,0.7970690308193819,0.33224372712531636,0.7723411594525427,0.5351548608409492,0.8360848815358404,0.29562241429741515,0.7911649380839636,0.948246642392893,0.7471854312605534,0.2531086312742614,0.8293926951401552,0.22383078650610008,0.7518477338432231,0.3564240012974673
2,4.514331867800224,0.4673689031371651,0.3831121480365508,0.027387505154358577,0.4228068398868474,0.13972519679219328,0.621582393645598,0.02997201475871607,0.6089820573219096,0.14009505314607162,0.8823688840576559,0.5237389581694912,0.8234617723627117,0.34260731866294075,0.9013208032173285,0.4213786583984353,0.5463280239570191,0.028219709929244857,0.6741635352676526,0.4698210500142157,0.9007319612007523,0.48682993615900805,0.6900670570377155,0.29218933546998166,0.6631761167398764,0.4884914766731157,0.7330209196495017,0.20907651107574754,0.4399149746762287,0.03246604498866191,0.4857154980259363,0.019733289011891135,0.5412664690073178,0.025612283744252277,0.4639125489217545,0.016903603693343677,0.5331369841235944,0.03001168724459361,0.4885148732070448,0.014319358803795555,0.7844149998348955,0.12650690095067,0.598083876726629,0.05881874855603456,0.7441660361652256,0.1073243900600953,0.8349456921349817,0.9604738859658687,0.6944768045474523,0.22737660556190148,0.4734892883710229,0.0481601442609455,0.7926491526022514,0.34978845971047134,0.8600744729666416,0.30995738132653994,0.651329043840448,0.21951798178824392,0.5114468864468864,0.40075979580989063,0.12895418150025761,0.5943983483782882,0.12393550781879267,0.7835489347766134,0.2152885179597353,0.8939718512717039,0.36964019840588563,0.6591863877413584,0.42432476577974365,0.6542421334400081,0.22715273812003434,0.6325087626571715,0.4356530477125544,0.7209132275967279,0.2055025408924618,0.8135036013708196,0.9526721559301125,0.755818076888311,0.28420491165755907,0.8419516703261261,0.2816597581611545,0.7046184354779108,0.33172621126711743
3,4.297124512477118,0.6246851385390428,0.44114086376354117,0.03332279682030617,0.516019428889612,0.19682057472008996,0.7076082867210156,0.04097524655735785,0.7297165458001159,0.23275521248265546,0.913812184880642,0.6272615943823753,0.8710319032920453,0.3651066026754764,0.9415926082568544,0.5098451923728443,0.6274237666530691,0.04121888082208175,0.8018554178235175,0.6102671571603362,0.9415741585871735,0.6738630795051073,0.7729389101466462,0.388461120030886,0.7979294262641081,0.6319379657417761,0.8392515798239657,0.31826822478527095,0.5551908708524498,0.044474850861905,0.7023038956363916,0.039886258846739,0.6362573385387498,0.037333297954608415,0.534508804229807,0.017920830937751497,0.6378990753197941,0.04486422402526627,0.6105877035042063,0.026622472528364555,0.8413442638335884,0.18657642977670236,0.6154148028234597,0.06112616781161099,0.8198251559121937,0.1413631333414377,0.849306849284173,0.9645207022944966,0.8032642564767332,0.29426306776742306,0.6061884287145815,0.0827150341663616,0.8491553343926952,0.3887825889464986,0.895604518699123,0.4252518668094403,0.7355091251526019,0.27502979904167296,0.6767399267399268,0.4755110268676475,0.16640238574159055,0.7128678989975158,0.20515104910025933,0.8217862313844457,0.22989997519170544,0.9322872418095894,0.4366087591371508,0.7784860166624993,0.5493097882716003,0.7383283613212926,0.2948786311312942,0.7506225659285636,0.5512426309424912,0.8088411934383686,0.2852283459463795,0.8185696741661983,0.9515605222442944,0.8013111565980101,0.29341670945890014,0.8673621707003419,0.35216408250975756,0.7732703216249521,0.39235117087958393
4,4.1373010321561,0.5580490038928326,0.41368509085884797,0.03008689653171099,0.4397238890340614,0.15094048144441669,0.6596044308661619,0.03764811699193133,0.6622321713141421,0.17140766772664645,0.9269169712781212,0.6730461640304329,0.8788069485847586,0.45591008065511446,0.9416504491187622,0.5516321591488569,0.601603564460382,0.038451940673719084,0.7644895332461423,0.571550445766542,0.9555623084182168,0.7620072799601117,0.6700446605690618,0.2929613973146438,0.7199830965954602,0.5406653775577414,0.733770558824513,0.21452781069091936,0.48159129582839166,0.03777242590661973,0.6163310062489777,0.03340153467890207,0.5908950538717742,0.033747262378478575,0.4721770752078074,0.0163068865332844,0.5768559449320548,0.03519695786687965,0.5804409005628517,0.03527885160746572,0.8364312739292971,0.2196170686701805,0.6267738660184611,0.06679624585822351,0.8162468847050179,0.16070872721451854,0.8609717348069297,0.9680825324079263,0.7729637371066322,0.3128360486044933,0.5065703307601788,0.056714433765484476,0.8494904953879377,0.46051164318894267,0.8944243849276512,0.45534677218414643,0.6981569502763924,0.27345011886512344,0.5748626373626373,0.40924511839215333,0.13731342925694007,0.6372100758676718,0.14192864015682577,0.8149400596387204,0.26182828099137617,0.9294804996548611,0.46064840701028126,0.7351610641786946,0.4950292118054378,0.6163631682426739,0.19996966484090078,0.6643866139979971,0.4499319242273784,0.6892717383998059,0.1807423575321383,0.8261658688919598,0.9562635553266174,0.7787534224374976,0.3193557978273677,0.8608805858443014,0.3770292448098591,0.7238052923223942,0.3618218648895566
5,3.967956372157607,0.6494924051599115,0.4736125392915693,0.03713447962529609,0.5110293914636077,0.18094541862948843,0.6729601224973174,0.03936131962226366,0.7653117037567384,0.2725150040257384,0.9431169685721131,0.6812354281126454,0.9163715240319248,0.47271273692529914,0.9506246813086039,0.5632963159470282,0.6705218936670114,0.05464960227800251,0.7756343522751703,0.5619533877430611,0.9672332441218786,0.7975033345276962,0.7892850767205158,0.4411886970805846,0.7544546412350372,0.5633723725793597,0.8423305852912534,0.35280456067211347,0.6324529000623468,0.06111760658038291,0.7555139649014271,0.06375266199858176,0.6645862417303275,0.05054507205408094,0.5732513118860662,0.02195264578371607,0.6759701786481208,0.05027619005823947,0.6713066634388428,0.0737771550052835,0.8732937314148764,0.270092858435893,0.6512454759251134,0.0735619659178039,0.8521536609244696,0.15585518489072736,0.8561053630926825,0.9667613238932304,0.8592152657735168,0.3723495292683067,0.6065821448200179,0.081911546016738,0.8962712934347807,0.5252536959181912,0.9291692832502575,0.5552747727042898,0.7603557112420587,0.30893166171459413,0.6318681318681318,0.46055941671430434,0.15126946373151443,0.7206893308964193,0.19391494579525767,0.8427373483177054,0.259334394477495,0.9338362183401477,0.457064243083066,0.7372267722888923,0.46047672093373,0.7308038488054404,0.3011757751654149,0.6943131745855124,0.45939102298227086,0.7912815522063529,0.2857925860653212,0.8199085075850832,0.9530976513922023,0.8142440792299295,0.3479459791554303,0.8824124727608037,0.42358579072658464,0.766182974702781,0.3902771430462079
6,3.810375560832273,0.635600335852225,0.4117020788993312,0.032836971548952765,0.4576023497282068,0.16316059000591399,0.6108287452954618,0.04356177599671921,0.6353114773640963,0.1832743102394065,0.9484942606081086,0.7288461638763849,0.9131735135354637,0.5494101977901585,0.922292271134455,0.464949609986116,0.5807358814544972,0.03991164468088894,0.7298576138704143,0.5397096704471289,0.9481266699522413,0.7317668564213637,0.6444154254559877,0.32887431798799094,0.6704869791836782,0.519670939141274,0.7280265749524893,0.2397931809206725,0.5432578430696309,0.05758221095111929,0.6838392648776792,0.04827697660141521,0.5892997339235425,0.043754739261756534,0.48817166955532626,0.020805558645473662,0.6099372868928894,0.046045373291359035,0.6890992858439752,0.09761811458259564,0.8737336046841029,0.2816772207056137,0.6455902352266787,0.0817182489305708,0.8439580549437772,0.20039513408162585,0.8670097350314862,0.9697058944409978,0.776523967073154,0.32443727933509603,0.5226862157363277,0.06128504187771891,0.8958953031252639,0.5436625882693097,0.9222155472054657,0.5668322002222722,0.7093433921712494,0.2929467707496258,0.5936355311355311,0.40763847519330865,0.13417767696946042,0.5938811281669942,0.12753688773990127,0.8217819222283508,0.26655309998100685,0.8973917126851803,0.34989077882687736,0.6813541693831562,0.4253819982828027,0.5688515503315148,0.1839903129443837,0.5964520974741293,0.39969755877476665,0.6646340572403856,0.18037458754777255,0.8236659845598808,0.9549283454597879,0.7805895979294488,0.3263319748069568,0.8786878873961602,0.4243261152267836,0.7013571438716828,0.3430172124145909
7,3.673901283598139,0.641783069994657,0.4622508655437847,0.03649159969193774,0.49512583338365385,0.18721651013225554,0.6506584889557719,0.050292868510227594,0.7344153427708408,0.2777002734506318,0.9477534908789543,0.7303778516102771,0.9199933510345527,0.5839332329744221,0.9278896127717996,0.5285528477984223,0.6509074005559191,0.05416693684137509,0.7658987673056541,0.5896526262266849,0.9617068486550877,0.7778714576642775,0.735552274307073,0.4243397058916152,0.7476858915674907,0.5852521679888238,0.7929082797535503,0.29032619966631895,0.5922532966440561,0.07926514595249302,0.7023596717490226,0.060042613080631274,0.6315031980085798,0.0574614044187768,0.518214665998266,0.02244982379076868,0.6084284232980497,0.045487171042085106,0.6326552381528778,0.04448386560301573,0.8848226342690995,0.33054651068375496,0.6715706545766912,0.09011308048946777,0.8659475299228401,0.23201719109998253,0.8656532232930151,0.9698516288534786,0.7981627503754936,0.36553572189486516,0.544605741504248,0.06819180385867415,0.908386536741432,0.6020860900403662,0.9073256068578271,0.5681482388565895,0.7379494673657642,0.32043905807823037,0.5885989010989011,0.4271342178897012,0.144438967933794,0.6809857137508304,0.18178987069304614,0.824416971180364,0.2710444595505569,0.8859154310253279,0.3667297297014561,0.711270580763726,0.45881148785138814,0.6512865879088611,0.24046511499076087,0.6494767441860465,0.41846320410540583,0.7150696581533794,0.21042066236823304,0.8215468025197026,0.9536610537593877,0.7665602116335329,0.3088022803641493,0.8419361641422599,0.413644256719487,0.7250544621048848,0.3607519170943332
8,3.504643537444783,0.6703305091214411,0.43570057565636516,0.03820971996454815,0.47313402574380414,0.16888160803353405,0.6707811399804133,0.04577290564736663,0.7365998106791531,0.28252381725425385,0.9499108473076675,0.7262803167436878,0.916843165142395,0.5997906525894726,0.9249373782424674,0.5603147717095726,0.6680570971403996,0.062451689678006274,0.7685525061835363,0.5773102748849368,0.9591913950358355,0.7315106048581673,0.7777014838480332,0.47621071560037537,0.7674409912848236,0.5953531038631262,0.832580562725568,0.34460031395993607,0.6280827665090029,0.08826802601523312,0.7130676588199143,0.05961172756513984,0.6405244760866129,0.07332738157470045,0.5152581922161302,0.027867123366753004,0.5988852585047088,0.047244645506913666,0.6823927252920172,0.07997684638950096,0.8833318271164231,0.3321205884709515,0.6695969559889254,0.09861737983016629,0.861768737688371,0.23136334708412687,0.8849978108191459,0.9743308519386311,0.8137567082848343,0.40725614537176863,0.5759810887435586,0.08352325251346507,0.8989851287168581,0.6183699523687854,0.906279720196165,0.5116426302343816,0.7464570382945602,0.32750853307472233,0.5647893772893773,0.4182415179869824,0.13879190196164312,0.6731655879635716,0.16583321709292603,0.8080184776613347,0.25655747261154765,0.8867836709499284,0.37431773216851355,0.6999142484157433,0.4272230747376945,0.6841518712071563,0.257742768321184,0.6692443251363079,0.42141700184388753,0.7585756829187746,0.2464305382280495,0.8388172071607005,0.9577618134759628,0.7416244884729578,0.28354690550419803,0.8406181385136392,0.37542926441931873,0.7290141105806452,0.3550046991240841
9,3.3224068844594097,0.7230745744599649,0.48148430462889896,0.043423048460373946,0.5040870956611948,0.18045178424562025,0.6617404119645683,0.05333213367101373,0.752511189633198,0.28781070398114855,0.9432872073122506,0.6633140414129417,0.9132882436603654,0.561963363792089,0.9024841684775865,0.4452080022210422,0.6364911315390867,0.04664754563936352,0.6786627046760019,0.48481491659654996,0.9592490767608949,0.76942331787467,0.6921786584943386,0.37803380293509337,0.729636187968098,0.5399876307127517,0.8286380243229035,0.3540737999020948,0.6397280013339932,0.10456178220858292,0.6915394480833891,0.06158867017149817,0.6433239058844964,0.05983360041938232,0.5065258979010573,0.0300845479985629,0.6021113175447214,0.04472150475752615,0.6684125915390666,0.08440170569303106,0.901188057553707,0.40164416660588964,0.697944771404989,0.12395378683472447,0.8716007687343181,0.23273081036817744,0.8607393948120255,0.969045316952792,0.8237700085873907,0.3786750898807648,0.5522931257631792,0.07453482262546723,0.8974958366935003,0.6332870566443594,0.9225798583609697,0.5283233797852341,0.7393700514554143,0.3161433456441017,0.6076007326007326,0.42956343833679334,0.14011126598978227,0.6798859677460083,0.16020534877397608,0.7782691412713734,0.21629562445230663,0.8490407462963946,0.30558102856574776,0.6145421801151434,0.3528356796224996,0.5761643445029832,0.18879407310770124,0.6192258261933904,0.3674114503391711,0.7394162567838889,0.24356827024265423,0.8143171020577231,0.952469706966417,0.733606932217686,0.28673611686960665,0.8511427023763743,0.3670200087470598,0.6986522398088872,0.3255480521524475
10,3.1912930343234986,0.7171971605220976,0.47669060031406685,0.04671970162946865,0.5722877992223385,0.24318240060014443,0.6738322278614058,0.04988660581521352,0.7600014697834803,0.31044064862384363,0.9499438160777647,0.7186952032642322,0.9182956387385656,0.5950722842371047,0.8946812347286273,0.4809617243746106,0.673446477755326,0.06573300300015028,0.7572858203139996,0.5843709103093533,0.9507656641243981,0.746022946129102,0.7738711820854008,0.49250414525077796,0.748874915739608,0.5846425473913769,0.7868801748540396,0.2831431996006959,0.7741406224363994,0.1947555219664348,0.8248895256566696,0.11660063392629183,0.6765523136326002,0.08716915924245508,0.5601279552561241,0.030561926332428414,0.6987557036182829,0.06825892853914134,0.677848869757308,0.0757276334759861,0.9281524975103972,0.44243008270766254,0.703035942125462,0.13155652080710495,0.8642565503342359,0.19347988819514395,0.8683522324169717,0.9708756923049251,0.8586399892051718,0.45645082562901707,0.6056831425347639,0.09251443002515687,0.9327087365075314,0.6794626224045787,0.9378082025271315,0.56865183739571,0.7721410853747434,0.34481003789548553,0.6098901098901099,0.46417827521537236,0.1575734645923489,0.6894284194220544,0.1860204137000879,0.7693060965940429,0.20735797228755218,0.8476718061381618,0.30678045554874694,0.6809267920777194,0.4169108302366772,0.6567189188959154,0.25436226600505873,0.6364671191721375,0.3981104018643498,0.6885948838446274,0.19461653991298306,0.8200611528102568,0.9540841475318051,0.7402728964344606,0.2761930904235788,0.8654673150319014,0.3944085915129717,0.7144630614215136,0.34058347032874187
11,3.0816260005270157,0.7649797725364476,0.5112416069487954,0.05414800840457788,0.5560687358824199,0.21893964037469837,0.6732580216858898,0.056282861857136754,0.7645904751663191,0.3169829615324124,0.9540598599829179,0.7443348436333386,0.9316214571264043,0.549908110177148,0.9141082089195142,0.5153479467272406,0.7230782366166719,0.07039419579806999,0.7905858701732933,0.6062901898184727,0.9483196053774396,0.5806768800779314,0.7619239342895409,0.4539986081253023,0.7285386331759021,0.539563403710278,0.7724350369747958,0.2999679540585373,0.7195424979290291,0.1587411334538265,0.8051358849821277,0.09989851062373037,0.6888884944038198,0.10478999753224166,0.5818389858894037,0.033994379530655594,0.670403589572018,0.05691875744052641,0.7779179023179811,0.13946793392452222,0.932440610156884,0.47789893811982825,0.7137851272456475,0.17257153342229406,0.8680222868919171,0.20747862410525603,0.8626151321998842,0.9694625121093366,0.8574707678280059,0.4444879099651293,0.6271706241405174,0.09284028955069727,0.9193085922358046,0.6368871145833741,0.9257204480004705,0.5496559553834081,0.777040393559756,0.33896034051999885,0.6243131868131868,0.4381759284331719,0.14283615515602724,0.6983522095490693,0.18781283619450717,0.7948281508549365,0.2116611341615711,0.8606311063027665,0.32630288570430194,0.711370598711732,0.4327013067394142,0.635228974985318,0.22646287002088417,0.6130418938466673,0.37106793103402314,0.6610098459542159,0.18111957324591849,0.8199227156132022,0.9528676752760991,0.7379205807299453,0.2688267415196649,0.8492736903477106,0.37899006156010273,0.7108868813935215,0.33460447005568306
12,2.9549056304501136,0.7109380963285246,0.5152994661926436,0.05035630561262747,0.5530832144789172,0.22328826526000656,0.6789836148126893,0.07464223256257821,0.7194285036118471,0.2477852338680588,0.9488402614277892,0.705407676838279,0.9258000652665187,0.5718049826440261,0.9047337078913907,0.45847879676338327,0.6779513839479119,0.07069968696690918,0.753811425630455,0.5653908186508955,0.9546173005394678,0.7040622926886279,0.6610560517509755,0.3644359861523063,0.7473103242971354,0.5771660710766477,0.7836232588103991,0.27140105048960134,0.7267965044288976,0.19757669773835584,0.7616353077164711,0.07554829690420553,0.6423056878197004,0.0756178939783698,0.5441238069760942,0.04426004583485123,0.6314393642793925,0.04807953259832162,0.7810162349452279,0.14376703106478164,0.9146002818942879,0.4710026404784806,0.7125204035146997,0.16428021760202155,0.8705326375068878,0.25585825918941557,0.8670554144677479,0.9708262024649963,0.8102170297584854,0.38683354163211336,0.5142705339826213,0.057960637057976924,0.9125584614047461,0.6616749661156224,0.9157430787199317,0.5212157293288627,0.7566427157804938,0.3318304107986045,0.5741758241758241,0.4406310236583727,0.1432908874195848,0.6430379460262423,0.14237986722627657,0.7657198014340874,0.20248171625630584,0.8444908870068496,0.3228354352986339,0.6691081068228502,0.4007459015851934,0.5418734200917517,0.17032189077220983,0.627010125737176,0.3927528995781,0.6804346364829281,0.1901593590788947,0.8144285804321936,0.9539432848180988,0.7239692840413191,0.2691397946359768,0.8260113133117488,0.3370760507854733,0.6887922840950472,0.32046609885952254
13,2.8325077030060175,0.768643614991222,0.4827108791480339,0.05499469027924049,0.5532099732259164,0.2357712880505903,0.678066495197748,0.06444903096889422,0.7439027420747542,0.30683566838472764,0.931962648866842,0.7088948630648104,0.897164257823298,0.5566968563599535,0.8694317257043617,0.4954255826625381,0.6875509513554878,0.07703878272460986,0.7454615856104265,0.5616863240008373,0.9004795760282706,0.48289767684605683,0.7216779952817279,0.42918121849456015,0.7607093830692837,0.6174840682982816,0.7557337825034649,0.2557222173544289,0.7428571595990252,0.21198655238983968,0.7535799367505728,0.09166556888836204,0.6598759783601865,0.11103164748598521,0.5149771942011002,0.04661396658915219,0.6132004802547438,0.04558638743544744,0.6888068903952066,0.15762772227953772,0.918851289466504,0.5054205463798369,0.7251622615247288,0.19901711646541032,0.857788785106573,0.21288202774365766,0.8745712956306108,0.972697945737662,0.8222370021556905,0.4155584076958431,0.4940914240747607,0.05573384154970895,0.9123790996940614,0.6885654414868745,0.9201237738821415,0.5375102174345283,0.7491320209994639,0.33699909840931025,0.6144688644688645,0.4313899168597246,0.14237813704859797,0.6518393970292055,0.16174865049023499,0.74779478936845,0.19251790729252494,0.80315885015664,0.3119107021647649,0.6541575712206025,0.4013190766659941,0.5894244027202084,0.19964579686801065,0.6480172749527094,0.43600323886774617,0.6459162231749622,0.17680476227116862,0.8257217769361443,0.9545422626187737,0.7044316386997118,0.24274066246609108,0.830683843383408,0.3607829591286143,0.6847759713183424,0.32549037780750195
14,2.76804067559683,0.7963514235554537,0.5388666026310405,0.0764819421690073,0.6347571727237442,0.303818818936904,0.7001066435178747,0.06567776108710875,0.7359640983718477,0.3203303157951703,0.9449439522345034,0.7037625020430411,0.9308527163641364,0.5864203208387505,0.8781010551214179,0.480585107615223,0.7263577804972916,0.08494255341605006,0.7750375263050701,0.6135440212068426,0.9405861656681025,0.5981617918846815,0.7280131872162803,0.4491233433812999,0.7349829083996606,0.566545760856092,0.7786152262011433,0.3036157724999854,0.7796989273810807,0.2805577214535767,0.8167804316865807,0.12073325413710612,0.6850872586086318,0.119263333727811,0.5387312677356579,0.05795310825964388,0.6737454412577739,0.05672689407519291,0.7343577891424076,0.12622542755572982,0.9248386754791941,0.5399121163634533,0.7397363807064702,0.2864659628220645,0.8660543219820606,0.22605705179612007,0.8646771624228373,0.970523821454081,0.8134553144550478,0.41117865893686156,0.5278185679916536,0.06103112813929956,0.9258728824530155,0.6987014518449365,0.9267709876428321,0.5695212772133434,0.7727707571924948,0.35843930442627325,0.6293498168498168,0.4773718045150485,0.16534015872988228,0.6591867104010893,0.18560533033424906,0.7780062827495863,0.2072900566524362,0.8153332912971911,0.2843986347688206,0.6749680540833247,0.4175071232192445,0.589197257662289,0.2032892510308228,0.610703794369645,0.3825373202744302,0.6697475823491763,0.20251795445526616,0.8140027038970434,0.9523072742089772,0.7121777533406038,0.2570363765469391,0.838220882487936,0.35744697962969296,0.6944469197411758,0.3286614963500692
15,2.679378765137648,0.803297458209297,0.5186908965784782,0.07137070623344752,0.6119907851979628,0.2891810664710033,0.6840969409339834,0.06574265623680609,0.7453572705820094,0.3047690535568814,0.9367957849298981,0.68854171244941,0.9143302329290626,0.5775281862879864,0.8685676806083011,0.43866190141841366,0.7142502521874694,0.07467802137190363,0.7620735633266084,0.5941491596503238,0.9333435731287143,0.601543249944842,0.6507689819939833,0.3716107009726409,0.7220171510142199,0.549576115622757,0.7779799004630518,0.27987478955207723,0.759277346692909,0.2419124230363555,0.7667550757973418,0.10066496697398836,0.6870356054780131,0.09234086892122415,0.5393588299692251,0.04841539338440605,0.6471418436182355,0.05215589217588807,0.7231389578163772,0.09335011629175927,0.9363515023644708,0.5807629500663327,0.74343557364345,0.27109604289921585,0.8611003921185354,0.2083940871859875,0.8598032728049478,0.9692600717867619,0.8244328948807754,0.4205029050050156,0.48974721261623066,0.05213959713727685,0.9068774718390806,0.6828445691228758,0.9266203689342651,0.5408280447219489,0.7596792356462074,0.3430331573510195,0.6483516483516484,0.4515919005927129,0.1487245085900212,0.6541163849964343,0.1722321165191983,0.7502316171400993,0.2041890282816602,0.8011933839536982,0.2805896795652063,0.6691455368524719,0.41369550639189373,0.5071473559676911,0.15541440528724476,0.5966231779236675,0.36009283534288383,0.6729582577132486,0.19356247472369498,0.8170818386062725,0.9534857991412133,0.6947915836518872,0.24499654342597504,0.838809083729258,0.36712380590805216,0.6776081928297674,0.3176460639251858
16,2.6091447381170347,0.8024578276467446,0.49170999367614976,0.06200192927112515,0.5874958207242558,0.28949178652776236,0.6629331066274152,0.05552440520489937,0.7003668622015199,0.27781030804812645,0.9370370135672057,0.7232066915091571,0.91408487191568,0.5874661340182198,0.847855741028748,0.459332260833595,0.7059551027248896,0.0757330004256205,0.7426949832470072,0.5720098185701016,0.8243366049111237,0.23149890737414108,0.6662099763442443,0.37667313878706254,0.6823899435630348,0.5258697843500202,0.7142260602611628,0.22641726083008992,0.7394976497745538,0.25221409689667007,0.7740809088974192,0.0948424884851595,0.6539418436713729,0.10486398737961562,0.5331746256544444,0.05698134085222229,0.6573377657239532,0.05925347151299547,0.7184477697754645,0.1279252910888651,0.9293775732412457,0.5611683690126689,0.749113592312981,0.33949607557231787,0.8419755562033758,0.18439639213429873,0.8638169344701929,0.9701840640545776,0.7930137548905879,0.4144640263225299,0.5081598178186942,0.05543211938124877,0.9130199915725362,0.6956296455507043,0.9140359518010942,0.5145647136875482,0.7431959191333464,0.3294241299141238,0.6634615384615384,0.43092738012857157,0.14286236700497723,0.617210023623206,0.1561623334045803,0.7623758963044677,0.21510199850038264,0.7751959658578027,0.2677585419073923,0.6418044342312961,0.3892480568900139,0.5346382914435999,0.18003466469143595,0.5574602203182375,0.34826258900603946,0.6107875886618095,0.16146610864314334,0.8184159360157848,0.9535561981828515,0.6809825598094186,0.25182365720743793,0.8233783632912807,0.33958172359794214,0.6593796963350431,0.30962347627601794
17,2.542707039521729,0.8262728036027784,0.5647067048754759,0.08211410235997646,0.6353531147338328,0.29660080456292964,0.6785934913052961,0.07026771240006213,0.7503575854092772,0.3230168542944902,0.9372641127316141,0.6767463624457155,0.9320909577494695,0.5728220339141065,0.8563100770534303,0.3878883160422356,0.7729484272672364,0.11256127090469384,0.7568042694423752,0.5665553577324182,0.9369965280463576,0.5198215746015907,0.6751566387385568,0.393438035919845,0.6942282836823043,0.5154569686655415,0.7422447646641123,0.2794805094205242,0.7758166522798091,0.2947823404810075,0.8319532452458562,0.1440973043758862,0.6914280106430583,0.10539417808329374,0.5643899458160894,0.06518457567829614,0.6790721402419782,0.05901759098946733,0.7655525630938691,0.18260846835393793,0.9393009647319311,0.5664249304542334,0.7601550246859415,0.32989913140897453,0.8425676518216576,0.1771077238509585,0.8551255024125116,0.9678977389360268,0.8132244177965319,0.42830292595706626,0.5424125392395558,0.06539747610245343,0.9225431540791968,0.701996324625878,0.9089928100533794,0.5197123501335871,0.7713181325126187,0.34831825787759985,0.6657509157509157,0.4700741141900091,0.1587283534490988,0.6580495225291199,0.17290872591831352,0.752238606591285,0.18579149604046613,0.7774236048425636,0.2252597588583571,0.6631631749869226,0.3939529869979772,0.522046369509154,0.17371068457233624,0.5750901301880494,0.3403065402737333,0.6290690911854016,0.1879930252365268,0.812715237964434,0.9529399269434842,0.7053802134841497,0.24873419145630432,0.8199576991304133,0.32923530145315544,0.6713825240546819,0.30632372647270484
18,2.4918758438139617,0.8170368674147012,0.5298469787672744,0.07588968610047953,0.6127420528744956,0.2820107131464174,0.6547275210542265,0.05670885765492575,0.7543757895001215,0.3361387403560437,0.9131122193565557,0.6288741550928446,0.9057057810773085,0.5592525318757893,0.8203469125320244,0.3512082724336754,0.748835510525467,0.10455754501077028,0.7449718834870689,0.5651333312212581,0.9122579190820428,0.46409024591972803,0.7309571285487659,0.46417720098514165,0.7094444428891072,0.5432824852472125,0.7165605918033424,0.25230782765125914,0.8089294168936307,0.3044435172051287,0.8380718505829803,0.1565209247045975,0.6939273340639495,0.10301259020119526,0.5421541982227438,0.04682810339682192,0.6679062174481485,0.055932500518345085,0.746310446044907,0.17287007104427707,0.9376905871291448,0.5968278303113996,0.757614818625152,0.30232687893801813,0.8377445264330357,0.1672138950323275,0.848499736955089,0.9662562663822866,0.8671522155926314,0.4824913689728431,0.5535598197254346,0.0740393921523197,0.9192447200300914,0.7004065158660372,0.8926343085751102,0.4847234406216492,0.7653824047340685,0.3443527736312146,0.6540750915750916,0.4346878478803743,0.14030314190013057,0.6581853581401667,0.19229747201853048,0.7524314413265306,0.19188944606010766,0.7429669662294908,0.2150268017333884,0.6587197395851709,0.3955231844736192,0.5935864236409597,0.2353836155377232,0.5905939134305107,0.36755700255119395,0.6004044761245109,0.16242173724908,0.8095359184415469,0.9521764308013929,0.7142939282121171,0.2607845199686222,0.8072209197027775,0.29732577402977317,0.6693297211558324,0.3100626478475965
19,2.462904521394582,0.8110831234256927,0.5354475220072644,0.08242168659374856,0.5690002655855146,0.26630112482010504,0.6532274119953096,0.05813849111682626,0.7209325997268432,0.30256794683741073,0.8945086702727364,0.5897067747889572,0.8826071087666046,0.5187847578214457,0.8231144592584584,0.4039351672087951,0.730517371684802,0.09517980751876293,0.6985447813049708,0.515863334991841,0.875066466585485,0.4173862130466402,0.6466187604918232,0.3755821826943113,0.6622895589903622,0.5038878004370366,0.7027158496597198,0.23029736263445594,0.7669717484083493,0.26537749834506674,0.7845134372525576,0.11319971911443263,0.6804305856629537,0.11478487666316074,0.5461140222505467,0.05400925895564264,0.6325530380146307,0.046688954544202285,0.7031543151969982,0.14535202213519438,0.9272629315963177,0.5949110859951047,0.759905979931851,0.333212095038851,0.864340172518675,0.22711412776310955,0.8561774777662086,0.9681830476583053,0.8181423528664264,0.42630136996584045,0.5198982522148463,0.0590129079257434,0.9119936660775755,0.6950940031665684,0.9104705048127905,0.49978842123213196,0.7435747892926157,0.32974377922272924,0.6641483516483516,0.4170011332751652,0.14009925134197027,0.6276371482532498,0.16044906507664328,0.7088691050744622,0.16559192698914202,0.745859163436521,0.2345038248897134,0.6124200201569914,0.35352221832582426,0.5250301086891762,0.18710534544923785,0.5431615110715479,0.33174785879588986,0.6028395159145574,0.16417010459218817,0.8135549688570953,0.9527250369597828,0.6897585480039815,0.24303632829265612,0.8225834129317439,0.315361202607799,0.6462467850604082,0.29530110575644064
20,2.4132809412769665,0.8196320891534997,0.52523495229213,0.0820306666013129,0.629864904076604,0.3170602441838391,0.6493064145673436,0.060245208742073036,0.7391730372023245,0.3158033533755519,0.9061412512273375,0.6348035909196804,0.8711935406695053,0.5259354697134583,0.7697286029526207,0.35423461633423786,0.7345662849860704,0.10354013658578946,0.6958626818589279,0.5093671663201711,0.867429936594303,0.4187703518572606,0.6760051668931039,0.3970765797277337,0.6619618338918549,0.49457805963849216,0.6922377528373687,0.2237312633948688,0.787929906426271,0.3008886857789188,0.8021234616229549,0.1223946708115343,0.6785030050830517,0.14261038652041283,0.5485107479867428,0.06044472994705014,0.6342837584204745,0.051102949549687,0.7360245945046299,0.1513902497698101,0.9382177051163292,0.6306647367571964,0.7630238723223276,0.402590124366508,0.8605999228232534,0.2200861308749311,0.854057061215511,0.9676119747759184,0.8303076591533003,0.44194158199628375,0.5102208366003439,0.055314700939633324,0.9063080923823135,0.7094603843707651,0.92052427488753,0.5258241784922271,0.7477533799479454,0.3414630441609387,0.6201923076923077,0.4450497939043837,0.14737603660444648,0.6606774191582198,0.17455477846634604,0.7138095525372311,0.16735430521198813,0.6987427321722508,0.1835807806367724,0.606088055678703,0.34661232649326723,0.5539110442501979,0.18879450041267393,0.5535348280850116,0.3368021113235551,0.5946658249822457,0.15478606485400628,0.8138107133632333,0.9532548467318211,0.6764095040400675,0.2355287132407129,0.8272776516608156,0.3360541729584727,0.6494524654393055,0.2931544215394602
21,2.349583608213704,0.8293260056484237,0.5493909640683082,0.09289032836984261,0.6259987734259872,0.3165301966404044,0.6523556726007405,0.07438862291105344,0.7221530859970138,0.3318816809626875,0.9066571910710638,0.6196490841640558,0.9008933538233017,0.5552840961544792,0.7862695783762148,0.3443366092462732,0.7582625785417714,0.11871021806407842,0.7271459319723219,0.5640867438127923,0.8888269835551834,0.5139903809202656,0.6981281043185796,0.43908248417254037,0.6165069179842706,0.4661119585969064,0.6967896938801732,0.24671162003133157,0.7882963862312082,0.34392303572964233,0.834676009222563,0.14428585778260766,0.6836393123276732,0.1458708815218275,0.5572190638045333,0.0678743301122794,0.6451224720780746,0.055519560847617944,0.720886415905102,0.1431280392761477,0.9291426903003686,0.6192211750856654,0.7703411484468113,0.40138585154293394,0.8738564613619169,0.22736794245245126,0.8600484626949365,0.9693278987709057,0.8008157693574917,0.4235965280755466,0.520116367845247,0.07729619066598001,0.916100771148393,0.7158335779349548,0.9054309246058581,0.5075815083216908,0.7531507809238929,0.3528098667469245,0.6742216117216118,0.4443902879321238,0.14885282458095805,0.6428733759590125,0.17960821549780212,0.720977833701048,0.17473954301247913,0.7163497915892317,0.19025484502748014,0.6308963418282115,0.3786429791722481,0.5758893234375398,0.21632819440776266,0.5037832424613331,0.2937576900147287,0.6091217549120177,0.17891888162163347,0.819508314793071,0.9526291250319016,0.7035830827958434,0.2699544993757595,0.8161452453905284,0.35522942623525705,0.6530471449818145,0.3035378385434555
22,2.384023383486117,0.8201663995114876,0.5796594221382585,0.11073211848319207,0.658188303336064,0.33667085444458944,0.7366205203501011,0.08473966356117987,0.7518174199940784,0.35578383377985634,0.9361090069138508,0.6933758058291857,0.9226577074425848,0.6038132450248324,0.8598751392923805,0.4628674508545514,0.7901803417100682,0.12501051297293905,0.7843581691523323,0.6187240264877798,0.9072606042657957,0.4711612975636041,0.7155786215504805,0.43972612885465584,0.7289086012323871,0.5830699388720302,0.7079605798457889,0.2448337524170277,0.8226681403987649,0.36498262636675083,0.828752449187277,0.1383873354709116,0.6923202912103665,0.15409159996917865,0.5503200005395162,0.0697759552288987,0.6348526372486909,0.05115868118338781,0.73097576106034,0.13363826067631146,0.9399443510783065,0.6278385535996873,0.778334871476769,0.4258944766767257,0.8625798939409514,0.20471475864635974,0.8599214346382833,0.9691404383985408,0.845726479490809,0.4801070405234602,0.5278419513271042,0.06440423790109476,0.9043889618071105,0.6942075699926932,0.9087678585420339,0.5274360066844362,0.7765396118211295,0.3717143026097726,0.6414835164835165,0.45318370089558824,0.1491379592286005,0.6813183368496762,0.20822925775802287,0.7504578478350801,0.19549498473390078,0.7867630953645197,0.2652358539888091,0.6907958943552754,0.42779094217691627,0.588615298193053,0.21625510581265045,0.6087779570490708,0.39430844593557035,0.6209842447197454,0.1816575479796805,0.8168534172311321,0.9547036328101554,0.6822860144187646,0.23268129235682425,0.8068487712899903,0.337706198984379,0.6806258707456269,0.3239273837968645
23,2.340505513250623,0.836272040302267,0.5377058738737303,0.09356466924288026,0.6572865861858839,0.34555207283884415,0.6564819789289389,0.07333580053485828,0.7256535937886348,0.32056914174549594,0.868089767195954,0.5576209077760196,0.8655458340733303,0.5109114759475009,0.7660224644169566,0.33757295871991666,0.7072573071121608,0.10844425597522989,0.6898711902866148,0.5032763971838294,0.8656433501369112,0.41827060183556203,0.6468189227442871,0.373020279698808,0.6413435064828009,0.47695853346614403,0.7147388727281133,0.25466051959452335,0.7800613891342505,0.31752796336528044,0.8007302564537754,0.13734462062519553,0.6789133067703462,0.1418606720084223,0.5311928403204427,0.06126306679271938,0.6277285421753357,0.050713381571141525,0.6821495037220844,0.14331453252376836,0.9357805882240486,0.6250865088983989,0.7711363601978909,0.42114781914203314,0.8533412223246377,0.20442117966414647,0.8528584050244438,0.9673917285539153,0.8294972282575588,0.4494951637042229,0.5112978872029125,0.06045644482111397,0.9082899338503987,0.6999797114799419,0.8916263925337238,0.4711232045547479,0.7406319668202284,0.33795865230609856,0.6643772893772893,0.4633189918865521,0.15198918384189525,0.6393764797156508,0.1669330700397835,0.7049876327220077,0.17425637952922335,0.6862314487867041,0.16900154436641687,0.609907606119503,0.3517923630207086,0.5196046931254309,0.1713696217785691,0.5365208078335373,0.32172248610664106,0.6304894336457502,0.18515504059652904,0.8135323817354706,0.95252101449039,0.6704730893050934,0.22906691339829535,0.7906396404219336,0.3116962143959758,0.6422802004816031,0.28959125741494796
24,2.273606879757921,0.8295549958018472,0.5028055442629659,0.08176246354477712,0.6388033885220389,0.30649531020233567,0.608700998511236,0.056450136080883034,0.7171549378180773,0.2877455631020019,0.8741530665494749,0.5720471206404013,0.8566047123992198,0.5062571340876559,0.7237184219535369,0.3173663587515752,0.6861225741779005,0.08143786040887815,0.6923087843355,0.5027595883399437,0.8068664458112239,0.28112339220232535,0.5940120719839985,0.321217856102366,0.5871980196202675,0.4076726215458926,0.6525829025837742,0.20361855783271118,0.779526318573913,0.31349472909392073,0.772436026851921,0.11001460828395307,0.6449805198807077,0.11761918589343194,0.5209718185217406,0.06091005898048304,0.6015150328751455,0.04562380270115569,0.6868168613447921,0.13322494275389493,0.9277834454016645,0.6269442242506983,0.771638484180657,0.43055426291328497,0.8624040135278367,0.21187052816679802,0.8524049201737551,0.9672254794780761,0.8315377979467555,0.4384393717724267,0.46065699056086257,0.04481699362386857,0.8760101435174846,0.661865449337239,0.8956570227035587,0.4604624246921996,0.7194581949848152,0.3166303712882658,0.641941391941392,0.4431787866935443,0.13847671292955333,0.6322964838603784,0.16045637846459085,0.7122916523028129,0.18168357280108235,0.6369238836085594,0.1645570467280036,0.613419279226487,0.3518346283662457,0.4634562434569457,0.13965101953970052,0.4865361077111383,0.2738304575879722,0.5749896981333895,0.1501730413817894,0.8121789759800535,0.9528583255603981,0.6542288464079049,0.2236187445673643,0.803633822501747,0.30618690175209845,0.6211939799893601,0.2766660754253454
25,2.245101661620618,0.8086405617891764,0.5575427192024509,0.10210202674465871,0.6396394885938057,0.341638476357471,0.6301771878023823,0.06201394771069777,0.7285974056110709,0.3235681590103534,0.8887667950193694,0.5849569634251418,0.8775846079630044,0.5057745185074463,0.7764455724205369,0.38854719017531514,0.7239598650362232,0.07999343072021653,0.6903220493642377,0.5048714357558961,0.809123657684377,0.24122749847804645,0.6004875325211487,0.34473001602768394,0.6198152757130677,0.4548627730611691,0.6317799231643251,0.19617934204445772,0.7873149770870599,0.33735304886377543,0.7805057695769022,0.12116085399009371,0.6795269171304472,0.13624879326792122,0.5458146656985349,0.043061648494364835,0.6188689810959015,0.048269257523428366,0.6779674544574231,0.12401484100483003,0.9312668037324054,0.611378921107626,0.7783056215360253,0.42847967435548456,0.8593615983337911,0.23013623969426952,0.8462323127016453,0.9659150931776596,0.8047709799909213,0.4104409654237241,0.5080135914510011,0.052762790411005914,0.8865387278881453,0.6803137516509677,0.9056982124971478,0.48108111656647984,0.7327566182693833,0.32596602865000684,0.6304945054945055,0.4490108413314478,0.14966295837115123,0.6387652194659397,0.18313862783117135,0.7111292574462218,0.1577152492824107,0.7037032735092656,0.209640117928933,0.6175865914588967,0.35862698742760113,0.46465154777812767,0.15882587197878378,0.5143863358184044,0.2982100822758377,0.5448457058020697,0.14250743405459146,0.808059740750847,0.9519605613169311,0.6722161991006859,0.23356908530420478,0.8042437324004813,0.3047814944146171,0.6298725858965807,0.2862398609260212
26,2.243910405510446,0.8469582474620257,0.552702599022726,0.11397974093508276,0.6385774359900613,0.33320753392460417,0.6675631699986971,0.06925563360576781,0.7153695311585254,0.3234138648446625,0.8739380416619069,0.5528140285752979,0.884484622004602,0.5361442462599788,0.7887564416167435,0.35750364816502517,0.756455841104502,0.1114419906952141,0.7107231372524809,0.5240837858668423,0.8447928430460371,0.3524150560535159,0.6586729463275385,0.3918157166643267,0.6107298513066542,0.45181619224479,0.650421762024282,0.21071369037569265,0.8154798457871733,0.37581975811813806,0.8164546718140375,0.1610015775517352,0.6920556884895807,0.12245856857980228,0.5236577848814076,0.044571515717633584,0.6251635452481119,0.05012295080457014,0.7057276221025237,0.16248813690508107,0.9334790308536948,0.6407549511580822,0.7706246543379847,0.43813154979488045,0.846538968359219,0.20579795260113523,0.846677871066972,0.9657609913929529,0.7920074712263462,0.4317683004557051,0.5061797710829434,0.05919843013096307,0.9021666369003851,0.7058734091785938,0.8950561563070636,0.47013792228765505,0.7416465904063779,0.33935152381065664,0.6815476190476191,0.4426484540321529,0.1440339189515061,0.6246348329526744,0.18990665892994107,0.7222188706563706,0.19436918104683518,0.7230177746508788,0.20610078012162847,0.6206807049731317,0.360087809239418,0.5411164472172336,0.19435252466293806,0.5087682207633248,0.2941673715398655,0.5730152467625836,0.15525153806562791,0.8067861185379429,0.9523157513419636,0.663854192796822,0.22578106994471775,0.8010339523401934,0.30143510884034114,0.6388886196075735,0.29252742842588936
27,2.211218050068348,0.8294786657507061,0.5397044131440429,0.10684748041119192,0.6201304201220839,0.3274563826639667,0.6335543545249203,0.05803178331732238,0.6775178310735928,0.2563045547442638,0.8930117168439929,0.630200933106553,0.8789944552814264,0.536974039855605,0.776736077939596,0.3576439666299785,0.7271167145743804,0.0683350254396918,0.6763015426798576,0.4797034179963932,0.8024285995274961,0.22290533161693074,0.5531481759953882,0.3037110987435674,0.6311193886156161,0.4749281581710525,0.6227900962531407,0.1773280700995589,0.7228565535428836,0.29495554563956916,0.7528757205555163,0.09887203577923619,0.6578248048638669,0.1435256766836869,0.514179909166455,0.06677073042621234,0.6007137382754014,0.047049926634968216,0.6956655117109483,0.15327843086609325,0.9236351502364472,0.6338268653322394,0.7677373153597491,0.43544370206362765,0.8610789073255561,0.2320679592394977,0.8588440455016215,0.9688995849755908,0.7707579371135755,0.40179697499618383,0.4480116950174041,0.04226166233091049,0.8715326102143942,0.6553606682345058,0.8791070022419325,0.43066281301069825,0.7169398032481958,0.31870899329663316,0.6588827838827839,0.4358704656457162,0.14179693328219245,0.5816811746645688,0.1432189258409269,0.7399758256343077,0.19862917214461523,0.716426950034514,0.2105060670487328,0.5909606478463159,0.3239299201918119,0.4408401494582564,0.14072281578240073,0.531923194614443,0.3313581432182211,0.5583097340218779,0.13827022032679837,0.8211446060314171,0.9554994765963754,0.652347742648746,0.21374132628873738,0.7947725552950515,0.2871216115501205,0.6240230041722922,0.2804358738428121
28,2.199528513232421,0.8494008090985421,0.5564954975780717,0.11923269870031164,0.636598414217571,0.32044115617658364,0.6250448312660936,0.07684361345748371,0.7141601876512012,0.3181227809848775,0.8686142275400041,0.5742925390218766,0.8655572092349677,0.5189537141902245,0.7423009531401711,0.3493308855068784,0.7192952664649167,0.09670872526363739,0.6713983798719967,0.4823934285281423,0.8063562608981995,0.2521656441639613,0.5629780088643794,0.3212655889581637,0.595443110898341,0.439067800331151,0.5979705539433519,0.17950223629891354,0.7407593180294672,0.30326488691365466,0.7554308140095908,0.11623148146000507,0.7000275990685985,0.15383965389002024,0.5042269594740917,0.06776230097598983,0.5828043175470942,0.046079019577223865,0.7057586394722508,0.16123816233384888,0.9330756543788332,0.6506295824618384,0.7798514977146382,0.47400726453860775,0.8460294417492498,0.19082480950333988,0.8443581892115795,0.9655128359191288,0.8226003778189861,0.4642300356595659,0.4450905817593493,0.046378523197501166,0.8778859387875674,0.6816908280826242,0.8973360019613751,0.4740759667063941,0.7184240086130346,0.3275587467704425,0.6476648351648352,0.44836657941450797,0.14446225026274923,0.6197961246796762,0.17766110160533044,0.7126983289092664,0.18003176172200003,0.6764779575744704,0.18076081894442786,0.5895456700052003,0.3269706493944577,0.4301196474623588,0.14836180788337572,0.49884611104929344,0.29571310441988474,0.5360039278606311,0.13601831889501742,0.8088244241103679,0.9523351866552748,0.6563736363067467,0.22066999320923572,0.8093256257262063,0.3239192845860039,0.6169434575544295,0.2806276615979779
29,2.1778006169979975,0.8358903900465613,0.5430470196863051,0.12290408757572038,0.6036565033449346,0.3244259368005592,0.6118088116676939,0.06150870981495823,0.674263171541596,0.30009305578077816,0.8611488134924992,0.547455850932033,0.8669519508279894,0.5010426039660678,0.7350533000604264,0.32165443842711733,0.7124952171342017,0.08533333203606339,0.6735079141741039,0.48558993173622433,0.7875785388622335,0.24773493002566307,0.5728297242316291,0.3299107664941571,0.5540995266486808,0.3998157812713128,0.5824392608579041,0.1728831001251544,0.7221954166083491,0.2930784131826419,0.7636422212169595,0.11923485478211206,0.6739437997218658,0.13563301920050858,0.5089863165206601,0.047795447314901957,0.5949872224713662,0.04640891834414244,0.6597916540579797,0.12706413289545512,0.9188900455862341,0.6249204572574897,0.7712456272179103,0.4619868120400616,0.8462232261565138,0.2252994303568214,0.8415364012808546,0.9647346309112872,0.7708647063485774,0.41424280323133617,0.46197611988140075,0.04990281807486817,0.890179535296392,0.6973238347125523,0.8774946582632687,0.4549588591096709,0.7066976556725382,0.3171458131999873,0.6751373626373627,0.41697144748322656,0.13806943903678495,0.5839120133536855,0.16379144628931508,0.7106606367209046,0.17339277659403626,0.6769160184251048,0.1874279777866114,0.5906975638266375,0.3338519980251969,0.44344885991267413,0.14950532857223822,0.45862662735061754,0.2660054952255497,0.5073398973028106,0.12636250358586876,0.8061197984500135,0.9501910534618281,0.6755815402586692,0.24555128827545442,0.7895955573749479,0.3108855211920475,0.6054427236781175,0.2768213480040847
