epoch,train_loss,train_accuracy,train_1st degree av block_rocauc,train_1st degree av block_prauc,train_abnormal QRS_rocauc,train_abnormal QRS_prauc,train_anterior myocardial infarction_rocauc,train_anterior myocardial infarction_prauc,train_atrial fibrillation_rocauc,train_atrial fibrillation_prauc,train_atrial flutter_rocauc,train_atrial flutter_prauc,train_bundle branch block_rocauc,train_bundle branch block_prauc,train_complete right bundle branch block_rocauc,train_complete right bundle branch block_prauc,train_early repolarization_rocauc,train_early repolarization_prauc,train_inferior ischaemia_rocauc,train_inferior ischaemia_prauc,train_left atrial enlargement_rocauc,train_left atrial enlargement_prauc,train_left bundle branch block_rocauc,train_left bundle branch block_prauc,train_low qrs voltages_rocauc,train_low qrs voltages_prauc,train_myocardial infarction_rocauc,train_myocardial infarction_prauc,train_nonspecific intraventricular conduction disorder_rocauc,train_nonspecific intraventricular conduction disorder_prauc,train_nonspecific st t abnormality_rocauc,train_nonspecific st t abnormality_prauc,train_normal ecg_rocauc,train_normal ecg_prauc,train_premature atrial contraction_rocauc,train_premature atrial contraction_prauc,train_premature ventricular contractions_rocauc,train_premature ventricular contractions_prauc,train_prolonged pr interval_rocauc,train_prolonged pr interval_prauc,train_prolonged qt interval_rocauc,train_prolonged qt interval_prauc,train_right axis deviation_rocauc,train_right axis deviation_prauc,train_right bundle branch block_rocauc,train_right bundle branch block_prauc,train_s t changes_rocauc,train_s t changes_prauc,train_sinus arrhythmia_rocauc,train_sinus arrhythmia_prauc,train_sinus bradycardia_rocauc,train_sinus bradycardia_prauc,train_st interval abnormal_rocauc,train_st interval abnormal_prauc,train_t wave inversion_rocauc,train_t wave inversion_prauc,train_ventricular premature beats_rocauc,train_ventricular premature beats_prauc,train_mean_rocaucs,train_mean_praucs,valid_accuracy,valid_1st degree av block_rocauc,valid_1st degree av block_prauc,valid_abnormal QRS_rocauc,valid_abnormal QRS_prauc,valid_atrial fibrillation_rocauc,valid_atrial fibrillation_prauc,valid_atrial flutter_rocauc,valid_atrial flutter_prauc,valid_complete right bundle branch block_rocauc,valid_complete right bundle branch block_prauc,valid_left atrial enlargement_rocauc,valid_left atrial enlargement_prauc,valid_low qrs voltages_rocauc,valid_low qrs voltages_prauc,valid_myocardial infarction_rocauc,valid_myocardial infarction_prauc,valid_nonspecific intraventricular conduction disorder_rocauc,valid_nonspecific intraventricular conduction disorder_prauc,valid_nonspecific st t abnormality_rocauc,valid_nonspecific st t abnormality_prauc,valid_normal ecg_rocauc,valid_normal ecg_prauc,valid_premature atrial contraction_rocauc,valid_premature atrial contraction_prauc,valid_premature ventricular contractions_rocauc,valid_premature ventricular contractions_prauc,valid_prolonged qt interval_rocauc,valid_prolonged qt interval_prauc,valid_right axis deviation_rocauc,valid_right axis deviation_prauc,valid_s t changes_rocauc,valid_s t changes_prauc,valid_sinus arrhythmia_rocauc,valid_sinus arrhythmia_prauc,valid_sinus bradycardia_rocauc,valid_sinus bradycardia_prauc,valid_st interval abnormal_rocauc,valid_st interval abnormal_prauc,valid_t wave inversion_rocauc,valid_t wave inversion_prauc,valid_mean_rocaucs,valid_mean_praucs
0,4.699292223058616,0.5119375916126307,0.8817598858616422,0.26918422106524975,0.6772233472439635,0.08557043734390535,0.7843623578044078,0.021582338690326837,0.8929555127439815,0.17187747996675362,0.9628386008350789,0.7381334914579226,0.9497262012030352,0.6526771633318759,0.9807431294819828,0.5571926912848214,0.38461174454426617,0.005362752481042588,0.7401291942753643,0.041737008481751145,0.7931445763317397,0.06678428759267316,0.9282832272894186,0.11410110493256312,0.5838925554012907,0.03209874910695701,0.8673130343051956,0.4550633036159983,0.5316956673896044,0.0279702811001211,0.6715155506829252,0.09233839706266135,0.9408622042646052,0.7727338921291983,0.8825668836081068,0.3256477856407905,0.844663209814011,0.19476530720124507,0.748371698887121,0.01535064410217329,0.7399631541123758,0.08053522042537778,0.6051477099271216,0.04211950522621376,0.9735541252171461,0.6991926929145099,0.6126326546217298,0.13114032853017576,0.8473661136353421,0.4765220724758672,0.9639490995305221,0.9123925613536834,0.6048652759716571,0.057523351897666386,0.6622400762441356,0.11058840661972064,0.7572524239127052,0.03819051610641687,0.7790581862550171,0.25672771400491645,0.5136766788402772,0.8728866440556653,0.25386705944748084,0.6726374955631527,0.08084333939581814,0.8914170162056404,0.1643262012389938,0.9642827121147388,0.7359302257304172,0.9782179539710235,0.5586498656316292,0.7744511171323757,0.06404210331958819,0.5904037253812962,0.028769520961614635,0.8669286116019973,0.43575236272956874,0.5723094207738872,0.038063902061561274,0.6753780923747392,0.08493340253298187,0.9384893821027753,0.7656144460489211,0.8813955471472114,0.30128305747821016,0.8607693931203257,0.19860734750002476,0.7341422866911774,0.08582402011569193,0.6203728252910135,0.03534455834065052,0.6175396560050521,0.13265902916734948,0.8426937355449533,0.4802427145549552,0.968372168228669,0.9212821974496043,0.6200868663211855,0.06508623372368301,0.6698872464462887,0.10727629759358348,0.7806330948036584,0.27691989425111635
1,4.246288341953575,0.5678865121363444,0.9308256332690873,0.40310180662777123,0.7587113971753632,0.15822741924005407,0.7888951150016963,0.019168325465274094,0.9196753426494512,0.4451413230062587,0.9674285113405386,0.7754840693390882,0.9204236872690987,0.496225273030109,0.9769891764286668,0.4679217336716988,0.3840257201077055,0.005546587249815893,0.7787720697945574,0.06672231402796262,0.8020637276480699,0.07417882201106915,0.9398582486512062,0.23753725971015033,0.5912156073651517,0.04619744902642806,0.8569341728318777,0.4865027222015098,0.6066161165090905,0.035295902620863025,0.7009361425316991,0.09900533952709041,0.9387273958806627,0.7543470509080659,0.9041916179334116,0.41229757871960565,0.918445548035544,0.2620349460629353,0.8673418627150086,0.042050286555901366,0.7823433816751131,0.15594844648309308,0.737431981917276,0.11441300637299556,0.9565032920459082,0.496320804305538,0.6290529676219327,0.162017581944848,0.868044088522158,0.5361935277643426,0.9704206473980117,0.8823122067256265,0.6056556679603643,0.07996532662601159,0.7542564830200968,0.15504254862346037,0.7729858367252339,0.039240153275761316,0.808170408572285,0.2824442789686903,0.5719609450696878,0.9259366078617963,0.3793028962432401,0.7599523739468326,0.15402439884406555,0.9165748517016772,0.3930835669762596,0.9687403680347875,0.7828847573778844,0.9753074199741266,0.5000385311327311,0.7715399589544597,0.05965695749615999,0.5855664259979209,0.036680936462824464,0.8531617220548289,0.45104137876153483,0.6298363201434125,0.045863926622943474,0.7034196957045826,0.1010695542010434,0.9355020061138709,0.7500745377215068,0.8907690660193829,0.39515117924219234,0.9249142862243919,0.257299981945486,0.7823062152555778,0.16164364553085916,0.7413399167290917,0.09586212086781079,0.6297665944693985,0.1517498813350405,0.860318562816625,0.5316791172459464,0.970630504259539,0.8728867490153168,0.6115753470447551,0.10275336417185288,0.7590494437762436,0.15429892361219705,0.8098103843541651,0.3188523202403448
2,4.053059127149468,0.5687808998534198,0.9116766162563441,0.5083742057857685,0.7548905095300332,0.20361734194894837,0.7802310623219184,0.02218923970481617,0.9257865654986708,0.49759308810271075,0.9669684630847546,0.7373345387519762,0.9236873102053165,0.4587032940795985,0.9810376375217139,0.4694491826311387,0.49571504199622307,0.008237225471644904,0.7327620718344541,0.055257403945947775,0.805288096838165,0.09618337190417867,0.9694843776481554,0.5453584679865031,0.5829739977917514,0.04777251179968142,0.8683262252978182,0.5692032352097545,0.5929351840252295,0.03353231088695569,0.7030049837020197,0.11832170841763776,0.9450205782878864,0.7734104792420116,0.9360548277814494,0.4405027219704185,0.9111726412739226,0.1914136944102983,0.8572876795741073,0.10455677269419986,0.7705564609865153,0.1367929521410395,0.7601771131182895,0.1320269010004675,0.961930296069776,0.3964032662282678,0.6006794476375547,0.15489784057067763,0.8977945858914579,0.6162145456230574,0.9544492581844963,0.8812653714111274,0.6243203175226181,0.086737165783903,0.7321005184095376,0.1511325872465717,0.8146312867335205,0.04679968462664745,0.812890826965132,0.30297432534199814,0.5700231050160245,0.9060748765748401,0.4766684805965466,0.7584707588410021,0.18931726557951925,0.9145057572421138,0.43553804141232083,0.9677493270539095,0.7362527740854556,0.9807845827329187,0.4689627617490615,0.7874474533161264,0.1016036105349967,0.5861548539610657,0.03866839958775566,0.8644182131477121,0.5327550698625362,0.622610147542138,0.03909741662694736,0.7075343378188208,0.1256486253960878,0.9423665421248533,0.7750899044796995,0.9195045819525999,0.3988446859577819,0.9109603322321418,0.20830939747896526,0.7709585514247803,0.1446322484002728,0.7558816391575274,0.12027221482335884,0.6000422362094335,0.14399382833100494,0.8902998072137417,0.6074374278921648,0.9573924710464388,0.8871515575037098,0.6380040155186208,0.10540851458129008,0.7369726682047177,0.14793500996250583,0.8109066576657751,0.33417936174209906
3,3.92734586278867,0.492534346972746,0.9129725341841756,0.48720064150770787,0.6106955010183639,0.0610484644628343,0.7320429591978805,0.013268563611157897,0.9181212236658841,0.26712986768373176,0.9815698478149183,0.8822098757401079,0.9220601261570899,0.4372770208437744,0.9729104526047203,0.42572704917710913,0.6394874239594883,0.015198231633721512,0.6862763241013415,0.0385654076679931,0.7896375439787692,0.09646764615746316,0.9584614084303146,0.5135583595485961,0.6006725919408169,0.0426176809574224,0.8259283922067859,0.2495276990710386,0.48369437482836514,0.02171966016789396,0.6949663634989451,0.13921173299777534,0.9356813913082431,0.7756180435541066,0.9054930151783654,0.5133678038243121,0.872680230980679,0.2804187199676618,0.7636476116679581,0.02573658230774,0.7601085359795012,0.15670961504240358,0.7177821607968667,0.1893269061438001,0.960393638909173,0.4176311718545845,0.5756286221447389,0.16960568886285898,0.9071795213929371,0.6817765029738643,0.982082543067334,0.9629397738324229,0.6543762515548214,0.08700179576711595,0.7321417879297825,0.16250787782673243,0.7411009316792265,0.045361606193763324,0.7942069039349103,0.29138321390641764,0.4872922411865544,0.8974351967075779,0.4640519244180612,0.612256615572867,0.05925299416306803,0.9083515420948166,0.229924249518901,0.9810265499018695,0.8693620057248932,0.9728595697271317,0.434155729199634,0.7640767599727927,0.08282158481286234,0.6152803292462369,0.040037358655264366,0.8167597510158295,0.2302990184925684,0.5046588623288936,0.024292014033437094,0.6964465280885856,0.14806418726742543,0.9291391224047892,0.7602724559398836,0.891736223899925,0.4681446520872165,0.879634394162855,0.28629297411697635,0.7466570825760059,0.17462057485718926,0.7067891882489262,0.15340643265288817,0.5735275068361284,0.15471008061307498,0.9013149319913262,0.6661222651639112,0.9808246562567438,0.959416398474745,0.6621396115169043,0.0982972073475207,0.7386622593941676,0.14919760451711897,0.7889788340972186,0.322637085602832
4,3.848411084589717,0.5777744652306775,0.9378843022299054,0.5071076688528441,0.8092355963231419,0.24803029408983368,0.847665992089405,0.03226942723459362,0.9422498869288716,0.5529094213136801,0.9815976404467046,0.8780872472352583,0.9325035551268993,0.5378553100854594,0.9849051839879865,0.5704296408543741,0.6410160039542383,0.018037112139309544,0.7659513379822586,0.057465786048619655,0.8512805552471736,0.14668617108451468,0.9725184135077114,0.6238835970327054,0.6192444421817654,0.06407371567013488,0.9197442469094239,0.6543596792270855,0.6095842055179118,0.04256890354368474,0.756146260064053,0.15928780303709097,0.961598457008377,0.8373708366613712,0.9389290702789787,0.5660693237694828,0.919384569206979,0.38201583830909985,0.8761276202894,0.09783765309134977,0.8002046424140628,0.2240227202508435,0.7794505073916839,0.20991001438545956,0.9664061533959111,0.5582080583343356,0.626773201031477,0.20473558759874716,0.9420284628439256,0.7374960031671048,0.9819475175797995,0.9613425921970704,0.6935322186782719,0.12913109156182756,0.7245876470104844,0.20047176012159873,0.8099991958340094,0.04605674173589338,0.8425891744807432,0.3659899999511919,0.5727062681672505,0.9218127841625389,0.4735112819752592,0.8139410996842834,0.2287743018760174,0.9314010957362225,0.4924871100491562,0.9816722600808302,0.8720883470469842,0.9837146829580453,0.5724226996841806,0.821722592242428,0.11383208618104476,0.6376690733541248,0.04505328038826595,0.914342985286538,0.6162500479442327,0.623138239161752,0.0467779515438026,0.744816490580952,0.14988117918428331,0.9559167975770956,0.818511548457817,0.9122260099432635,0.5130877397606688,0.9239144781518344,0.3601844839131148,0.7956186386069278,0.2044061041670582,0.7823158739377207,0.1933875976581767,0.6234056032832799,0.17578516152419094,0.9331704291194072,0.6966962680104528,0.9812283233652926,0.9597594393091443,0.7025969320747638,0.13053263411277607,0.7209374692354116,0.18283409533345044,0.8352780929271356,0.39231316790600385
5,3.778959646251275,0.5665200864574793,0.9036272880715222,0.4493290570272357,0.7273069266400702,0.12246805655675136,0.8396334731512367,0.029974147290527407,0.9529081021716955,0.585800495851829,0.9784628480310105,0.8720087219745747,0.8864363276419984,0.4420248473840091,0.9803347353283659,0.5289809750487857,0.6832418081685221,0.02159165687657707,0.7784032172647773,0.058682421092638805,0.8637689286760248,0.17187375168356772,0.9485742772301001,0.5117253456993237,0.5858804753663907,0.05239795784280703,0.922733525353093,0.5361006271298616,0.5880648151875834,0.0333746988210639,0.7425490033455912,0.18185176410348375,0.9598815118582135,0.8134070727180488,0.9532957713003473,0.595565852712314,0.9318288581922342,0.43732952866852365,0.8745905941870009,0.08784961896979332,0.7722569714041239,0.21636944540527558,0.8135302804420451,0.2802196433524009,0.9572633342651615,0.5270042518749658,0.573261170320464,0.17137844859906684,0.955072282429748,0.7642729486574338,0.9905434763657133,0.9754589289109731,0.6648502183758739,0.12258761606591748,0.7275295394353268,0.187114817097207,0.8063443483008794,0.06282478234873433,0.8343633610180398,0.35141312427727467,0.5624208094208839,0.8759057820722413,0.38880303827469903,0.7173855526910646,0.11588646648755016,0.9461397110897495,0.5313811732764498,0.9776775876090289,0.8612209397332969,0.979973044643227,0.5327845902597909,0.832454792099115,0.1312970460110172,0.5851819256347817,0.050649456281981836,0.9116447558696901,0.46863770676945726,0.5998755654386395,0.03687403157944799,0.725841016162232,0.16053666610400566,0.9546053227472792,0.804616948272857,0.9297429307441979,0.5433973351790137,0.9241918483760452,0.4077573446116554,0.7632319278760541,0.20715090435641695,0.8116290292261809,0.25629517336681457,0.5731471386785154,0.15982450893088657,0.949700987781138,0.7266337975974899,0.9889822322245174,0.9724669594985323,0.6800528789025687,0.13610625753215722,0.7223424746071764,0.16691942709041463,0.8224853252236721,0.38296198856069674
6,3.72726177088249,0.6032893592705771,0.8692044984340559,0.41253822451588307,0.8469182090771912,0.2275584952580283,0.8276782580218806,0.033090453057364744,0.9467218179513449,0.5951087123291305,0.9769931926238679,0.8653065406485927,0.8895572169898187,0.3457022922127562,0.9770840115298715,0.5290633786650423,0.6029635277705347,0.026813917400321435,0.7647449130231984,0.0538287134903373,0.8347842506357748,0.1449398802156367,0.9667599552991356,0.6230490907901853,0.6073750593388246,0.06573117353888762,0.9351139699323883,0.6003301707471028,0.5594953067904336,0.03380826927069208,0.7500589353005442,0.20769936770382705,0.9663033255633131,0.8457535525282147,0.9383082223626309,0.5673023759240385,0.9542620728245573,0.48532883085132483,0.8398764335093816,0.0762550038936432,0.7984355527861847,0.23294272026329865,0.7684707372207373,0.2590258119325124,0.9434543859518588,0.4680042137263859,0.6413967135700336,0.19637074026734236,0.9508797674435007,0.7515830634570866,0.9831825140927829,0.9644435480719511,0.6482910563296416,0.10578072837277297,0.7405934955881953,0.20555651715482431,0.7829266870778425,0.058263612048108857,0.8325655031085545,0.35647069279768895,0.6013266751136618,0.846199074412968,0.3584509189589424,0.846204510639093,0.22021361267545903,0.9393396121297738,0.5337292903199661,0.9761222466711333,0.8571025540744467,0.9759878643346792,0.523545867799687,0.7981855218517326,0.10446557777064971,0.6209826120391335,0.050101074808760304,0.9231746392433707,0.5306169839111097,0.5805206507611179,0.04284413730776025,0.7359099143920633,0.1856573684498582,0.9603529274402413,0.8276554609581818,0.9138571097110425,0.5063779270413507,0.9607208692719065,0.4667946130629072,0.7896095309992367,0.21385644154382072,0.7618362245284448,0.23122593247146175,0.6400847066158217,0.17882799027028107,0.9396251599142661,0.6939017436179032,0.9825923135616734,0.9612606944279075,0.6663934302492338,0.11573346128823887,0.7395930620770538,0.17584168191847221,0.8298645990421992,0.38891016663385825
7,3.6858082150516176,0.4983727112369879,0.8932897887398739,0.4275246718088311,0.7002336055873243,0.08885855951143928,0.7910496441801043,0.0228830258855763,0.9297040881782337,0.5121569320794649,0.9771068406962838,0.8612963782674257,0.8363540558748033,0.270756079655592,0.9756875481206693,0.4533129997344421,0.6093608514605836,0.040022319399050564,0.7154978433088061,0.06305286328551524,0.7864094076637103,0.14759349331485308,0.9501400653564771,0.6509078465142787,0.5960629930238128,0.04325103258005267,0.8567405444177463,0.35795395657929696,0.5429678775928538,0.0290158699671791,0.718380446857233,0.1729523395693898,0.97086418809955,0.8824329072154267,0.9243802833606172,0.5436384395380077,0.9142421914240808,0.37362643235222737,0.8215025485294172,0.0669402314875524,0.7615299525468218,0.19921989502908047,0.7037219831337478,0.14605026439627536,0.9300246349838028,0.3407793732745718,0.589840436989013,0.17290759887006726,0.9368522122567985,0.6988881800209858,0.9818142359900072,0.9481577537503763,0.6328490293913056,0.06531528039463842,0.6730274721745756,0.1411967471819056,0.7340070501185,0.04738010933690363,0.8019157792877412,0.3131454136071575,0.5233658791085936,0.8714918380792037,0.3815390585663924,0.6985468157447364,0.08519488653339129,0.9204237148895102,0.4334154440129238,0.9753294030677967,0.8399067687060893,0.9758308741270009,0.4576688890125911,0.7586866718193668,0.11227705586236247,0.591004115577961,0.037699844662834735,0.8448888238998248,0.309327085781151,0.5581714328124733,0.03924479441746421,0.7107481612355873,0.17164656907137493,0.9605835951541912,0.8498215969593523,0.8998145801479789,0.4794764548297674,0.9107091049486035,0.35706514107992593,0.7525949061542089,0.18683312750056766,0.7055906609207495,0.13898042023376833,0.587019916432066,0.15807308103057827,0.9286779758175109,0.6409221947199586,0.9785758900586778,0.9364587837900147,0.6524482371183156,0.07536743569152529,0.6723236948324052,0.12906109260858253,0.7976730206419085,0.34099898625353076
8,3.6511543923581016,0.6204814787210255,0.9280506872388122,0.5532637744947945,0.8327228359339693,0.21990499499104693,0.836013601360136,0.027302612141209427,0.9438897495645238,0.6093566234827906,0.9786603778557659,0.8663270518423167,0.9221743083299195,0.48855463746292854,0.9862618146185027,0.5367412814985308,0.6415379388269503,0.022876097316093066,0.7991083530437009,0.08654567905715708,0.8582636941109983,0.22919301161810263,0.9645449939268967,0.6130311662117329,0.6113760000078892,0.07226292266133219,0.9380422329981395,0.6858704692385194,0.7158957930696497,0.0659407689670897,0.767252812373814,0.1999855426300324,0.9735343219444142,0.8793634954449874,0.9539418853766405,0.6160638264216732,0.9520567550592856,0.31379149012419616,0.9243739927479904,0.12787332849785527,0.7728622184710401,0.29570333140363414,0.8604642942878238,0.3059559682710276,0.9716397765171526,0.5310903431594414,0.6370878053927327,0.2045449639296803,0.9613089812237751,0.8115606912357806,0.9892123246950779,0.9739644123151083,0.6491597674650978,0.14624514627018093,0.7187726390287642,0.195868182138136,0.8246989235708951,0.07914894595136852,0.854032459965727,0.384226098527741,0.6019974659014683,0.9068055047214699,0.489762714548545,0.8254539011563824,0.2053679081785322,0.9309384011920521,0.5433710491782511,0.9775390549987987,0.8579279746702304,0.98569455506397,0.5499272705470213,0.8241787810871258,0.16412391458424422,0.6227128636732602,0.059691511231555694,0.9256494911929127,0.5947769597680702,0.6979861868359605,0.06650538267589926,0.7529309104428362,0.16833669603598858,0.9642848221741038,0.8432211181905477,0.9244258429662416,0.5292425620880672,0.9562077050260122,0.33660830867094066,0.7613855563692332,0.25066407575087035,0.835672171300154,0.31569599546776145,0.6294249899456825,0.1629342348531284,0.9511334430286795,0.7568097940934269,0.9863959688524422,0.9690360490753409,0.6624041138578525,0.16594247360518355,0.7117430841205501,0.17191615028583188,0.8416483674002858,0.4100931071749718
9,3.5997936897628966,0.5063228242776577,0.9353678952567872,0.5555725288085265,0.7492049253464541,0.18072112682407526,0.8154312490072537,0.03152550309634435,0.9325661648046812,0.46560903115732694,0.9849264744465205,0.9013826046139277,0.9339762021426128,0.37703551650996636,0.9889048912870569,0.5956841115611731,0.7411242538613962,0.02985399109162369,0.8015246254002404,0.0920237378860564,0.838688022422958,0.19303551111875447,0.9727135384300323,0.6019139223592896,0.6456924697536868,0.09288874541635445,0.8927162278972665,0.5523664881999014,0.6328272966577609,0.052193007302060265,0.803577424340088,0.22527790036768916,0.9681501839046991,0.8759364418378615,0.9498634321668598,0.623054221167041,0.9335796385058726,0.39481236703564526,0.8934932800694304,0.09735022757622308,0.8514172337714511,0.29443410375375495,0.7152803660156603,0.2895527606293638,0.9750279105544235,0.6013930497743813,0.6124905226614006,0.19542946210766277,0.9445301584462104,0.7977668148624018,0.9827362019730029,0.964920192732642,0.7269055562384669,0.13966428843241918,0.774807621938741,0.2403422986024522,0.7947690187231645,0.07613853221276859,0.8497247423580064,0.37635280310848884,0.5036893493329359,0.9165226232014901,0.48589516107220376,0.738790772291655,0.15113999442342266,0.9288111394183646,0.3874797342300162,0.9828815399590037,0.8866396424957969,0.9884955181827809,0.60062131545618,0.8177933649889875,0.1281471644455433,0.6668526509163926,0.07452304823923855,0.8777719480204343,0.4692383178318576,0.6274741806016249,0.05686637454222306,0.7918075709211001,0.20009856226236458,0.9596430214127006,0.8448775033623463,0.9232464933833867,0.5138675354817309,0.9273159297864376,0.3589575582647184,0.8253644906300754,0.26014393146784687,0.7245526433182671,0.2979491829750368,0.5969004840608783,0.16295882292678124,0.9345448288198197,0.7281385454510696,0.9815946745486122,0.961705989954016,0.7189990964004822,0.1509145577970034,0.7740187433923014,0.21182798343874126,0.8351690857127398,0.3965995463059069
10,3.561299293785373,0.5857991105811036,0.9208717756123549,0.532362601885727,0.7732308096129072,0.2171252201527913,0.8232950746054998,0.03279603554661073,0.9444694671666027,0.6922943840458927,0.9738287948838182,0.8541260281671584,0.8424807304370538,0.2961508040334131,0.9873418555966327,0.5937014688023201,0.6243061426774162,0.06872566354095326,0.7783195679365743,0.0615277821787982,0.8542824064832156,0.23167137585141692,0.973551458957121,0.7200834428399561,0.6184964124279753,0.08854084871878866,0.9152789363212763,0.6290932246669991,0.6625483051749006,0.0649457334344408,0.7719432520323027,0.21301813101578582,0.9749254002067029,0.895132470173901,0.9403706835060441,0.6119342248301755,0.9237095753250132,0.4294759151525977,0.8610851195303117,0.11488348762663948,0.8121996775868321,0.31116431108753334,0.8427608684961626,0.30948365102154024,0.9564060612760236,0.4632276697133449,0.5939584936884358,0.18778039228674556,0.9591021497008803,0.8090792510857822,0.9839530973585568,0.964564481715713,0.6424297002690191,0.09832128050009145,0.7460681716723203,0.18061142452433293,0.8094984484652041,0.07125468635874058,0.8396683013216842,0.3836812853913639,0.5694268465379743,0.9047948336302044,0.46768289243208294,0.7694320485157579,0.17665915554819173,0.9316343315574676,0.6093367969632201,0.9725213724822199,0.8435169377155644,0.9853400610466321,0.5798702852835486,0.8269652298380068,0.16723791078659528,0.6249933780493016,0.058742128569915855,0.9033594825368981,0.5459898298006053,0.6429486923309677,0.07177298122939713,0.7566833729751332,0.17961714859041206,0.9643496051458412,0.8534527629241715,0.9066511191624973,0.5130181029678446,0.9202072816379,0.4183830630882872,0.7912620434420159,0.29215274833217697,0.8283607162195905,0.2856685226515742,0.5782403571422804,0.16041002338631816,0.9476897553403258,0.7392510470913742,0.9831825924099022,0.9607976315725886,0.6464831863636264,0.09752848984352488,0.7412928189565509,0.1574384322834403,0.8313196139391559,0.40892634455304167
11,3.5271919414018633,0.589376661449405,0.9224846992940577,0.5742699045271364,0.8565777562810326,0.2960198184802313,0.849922149077653,0.04185484566277213,0.9605312754965556,0.6804942815556841,0.983872193963829,0.8952007093820064,0.8951139789891648,0.42309520301023756,0.9861780512481149,0.6102305870074378,0.6912551107037473,0.07730572617163467,0.7943150584577149,0.09616795888572097,0.8765591389678878,0.2773542196965804,0.9771009582791933,0.7385552358647293,0.6408454230859738,0.08787938925876604,0.9350590434236137,0.6317582969859445,0.6913543914132729,0.07151888226262956,0.7928291848984216,0.2600116406239237,0.9774397610118838,0.9054943466447957,0.9551923313102347,0.6399877093567576,0.958699733036131,0.46998388332192564,0.920597501994528,0.17209130514952548,0.8383873119839083,0.2992027213249614,0.7907571841395372,0.22576636572046277,0.955985117677842,0.5809438352821216,0.6684908479560719,0.21273286105229006,0.9632309101343242,0.828920054586847,0.987718636443487,0.9706141614319983,0.7008190383218689,0.10562123852958548,0.7603181902674007,0.21347730783487562,0.8428818433696356,0.09270224356695314,0.8633756007581102,0.4099733833278047,0.5791905791160468,0.8894556279432935,0.4901634308160812,0.8488409320181584,0.2512746060119633,0.9515475716090627,0.603851748316698,0.9821487668217589,0.8826372404094597,0.9847691875641658,0.631138738635783,0.8488019972288099,0.19491959653071056,0.6487822731091839,0.05883471293007441,0.9199123661148978,0.5403975415620603,0.6771590383594335,0.07104203486037935,0.7741939019255414,0.20467934000393379,0.9655579437863543,0.8624226605049873,0.9273768941084082,0.5285870467887924,0.9584697070269037,0.46159215624980926,0.8029302237167095,0.2565482701056011,0.7823958342100907,0.20242547897647428,0.6596663177939616,0.17909702127220303,0.9463306279099687,0.7443913001327516,0.984521951526549,0.9614637510416554,0.701280350915784,0.0926353070046936,0.755317618959975,0.17995327146380918,0.8504729566324505,0.41990276268089605
12,3.4968202435088624,0.6533253832202927,0.9193510697387016,0.5333612677467143,0.8631478387830505,0.3611776760000541,0.857826665019443,0.0404749313141111,0.964668763465229,0.7474068308049484,0.9847852424404757,0.89951373965166,0.8456857883244324,0.4109341420738085,0.9789860839797146,0.5594004370271755,0.6516450825306774,0.03384122919014679,0.8318403074200685,0.10465104485969376,0.9006717170182091,0.28145134874908384,0.9710961995438112,0.7458940686179983,0.6808316551226894,0.0939353036141798,0.9543979648449757,0.7350924472146394,0.6806657398850391,0.09008011322623696,0.8107519372304652,0.2630047274756357,0.9752481773516444,0.8855350165866591,0.9598335680140275,0.6548188917608433,0.9505140801663521,0.47688278312069887,0.9202678465694734,0.14372783616505197,0.8339094484115628,0.3276006828407964,0.7933623062299533,0.3430899178181999,0.9372516970431997,0.5093182829486506,0.6127094163179547,0.22353064826342428,0.9695912544743105,0.8338798801258911,0.9886211309672233,0.9731729131253412,0.6824742069182992,0.13573860613321176,0.7478816849313946,0.22393817636329,0.8358327518007235,0.10487570249768277,0.8608517723051108,0.4191545944755653,0.6192144294551688,0.8882600102481517,0.43866180759651646,0.8568098016962769,0.2909295080597291,0.9557803768410995,0.6720026032844522,0.9829340373811938,0.8830983701206058,0.978292766020137,0.5663930597289504,0.8692788449970391,0.15415800769628105,0.6843878611811282,0.08577008071497652,0.9359666805865996,0.6254644132587427,0.6647855186811221,0.09332296908100324,0.791779194664856,0.22559754068982443,0.9641926541558755,0.8336211512139489,0.9334112691641828,0.5140095835956783,0.9201406490208194,0.3961865084905375,0.8074295962916394,0.26688922221696776,0.7886064327337716,0.3444440178948793,0.593232475203388,0.17791278380414635,0.9517099189209828,0.7422479913421771,0.9867894720278283,0.9675264362419287,0.6815536304644587,0.12347646192646167,0.7340345697665958,0.17369768338674613,0.8484687880023574,0.42877051001722777
13,3.4651600976206023,0.6083078681274999,0.9329205411862489,0.5982272865239954,0.8604054982372543,0.3805367654204773,0.870030826612073,0.04160172494850843,0.9720285492520631,0.7742241209076893,0.9852665212616913,0.8851758070262622,0.8947314769314898,0.4623055550854743,0.9874907003824202,0.6374687996274159,0.7437445951866104,0.06285451874573171,0.8341901968043923,0.11629530635897013,0.893657426928723,0.26716477585016624,0.9731988570560985,0.6801334649476513,0.6796451713944399,0.11850182137162388,0.9516413936368389,0.7648357438518113,0.7493699551145908,0.1018971530713602,0.7962619368348877,0.24158018048884222,0.9775765996269111,0.9060077634866841,0.9668366109054631,0.6750028286109201,0.9497227721341169,0.4188239945564699,0.9387659413700963,0.18703992955271215,0.8312374457867711,0.36078870059890195,0.8740564659682307,0.33559784201435494,0.9586031648850326,0.5713634785431743,0.6596496929469166,0.22374186264940876,0.9700883095690667,0.8188868398463647,0.9894800599155816,0.9650954115052022,0.7171708589035704,0.1447612730083889,0.7798680334001638,0.22809251249788373,0.8583475826596535,0.10785660416106534,0.8784281137461213,0.43128078804491116,0.58112841916971,0.8978016901316804,0.4983866076331891,0.8454479697920751,0.2905654673963245,0.9642461761600886,0.675244496573539,0.9833206953655459,0.864627769953012,0.9838049177988225,0.6433055682207591,0.8532102553990379,0.1576171359381107,0.6803357969838082,0.0965045381261797,0.934911558974222,0.6663503907743308,0.7289738656496859,0.08961241329050243,0.7745155561355412,0.18563368184118043,0.9650944147242391,0.8598868435733992,0.9356940155990647,0.5587096212486716,0.9366967820590563,0.3777588845413803,0.7996890508986813,0.29795295092513663,0.8481880581437433,0.3338079952721071,0.6417702786297702,0.1828185354509952,0.9514658764138617,0.7397773905174232,0.986227838450946,0.9532237418359489,0.7176452067172595,0.13163334592052198,0.764613393457148,0.1729061245569563,0.8596826698742138,0.43881617517948335
14,3.4286576246866387,0.5978981888648729,0.904574978734894,0.5017397338698005,0.8435551309567234,0.2888313534570889,0.8606563597536224,0.04519839473293763,0.942171247809062,0.7053268490544048,0.9805923294959904,0.8884148557694657,0.8848679024304994,0.3573676403763274,0.987942936044847,0.5822820714861714,0.7567144353402145,0.09817911818829461,0.8077577182461231,0.12110048382703403,0.8878140526511417,0.3128098005867107,0.9721886740155923,0.7262500964368506,0.6619048813587152,0.11861895604733917,0.9414535318331066,0.7208082452192729,0.6927241391602872,0.09451330092810285,0.7700988771525764,0.24714770123427554,0.977858758151322,0.9052953811436778,0.9560272838669538,0.6715134412022613,0.9515169341725669,0.4108294412115178,0.9087492680584177,0.16527270549835577,0.8141854570129757,0.3033998418855328,0.8621430698636581,0.3010643375398834,0.9674921228638375,0.5915453055200052,0.6526735025337118,0.22197702265494212,0.9674292379158853,0.8245730568176065,0.9897995242774431,0.9715246655745506,0.6609503873305331,0.09469188571411925,0.7245961343445492,0.20369851503739814,0.8421282339835492,0.1389527437237545,0.863234539619957,0.4147473908834887,0.5726317358574943,0.867333284532611,0.42368067993895514,0.8304855779110388,0.22731329179269374,0.9294011221759109,0.6034457629152511,0.9784163380416389,0.8734628801023953,0.9867114234546133,0.5900955579701387,0.8481086128144951,0.2013291360708856,0.6722812264137509,0.07772626355986718,0.9214463373366237,0.612691417758158,0.6737464246770077,0.09338006923636837,0.7534880705878915,0.19341294321597663,0.9629380899814604,0.8536814449009487,0.9213300255224973,0.5270652230557524,0.938821374213241,0.3788865529467962,0.7845136126327442,0.25036369835734,0.8443085821220053,0.28122760140339453,0.6311172244592069,0.1707020044917257,0.9488772266394414,0.7328943860718219,0.9862294922978901,0.9612032925905012,0.6763675299384732,0.09497559119269888,0.7105205796369458,0.15070745099903446,0.8433221077694742,0.4149122624285351
15,3.4020337837828913,0.6121835482348265,0.8951890251088518,0.45836663593224963,0.8278574694646486,0.2551893559780238,0.8229489125383127,0.03519465337033672,0.9467774718196739,0.6979945193759186,0.977315577612102,0.8839971993983697,0.7674256476978468,0.24600984644493612,0.9759811780576112,0.5440860891590847,0.8125834590981281,0.13576515606565953,0.8071814227822659,0.12345679512464598,0.8440733851397804,0.26294783115874654,0.9547840694028586,0.6789850879973708,0.6551507332497485,0.14173336605685868,0.9191371177700519,0.6099030962342413,0.595745076538203,0.06479960202670251,0.7728977401828485,0.24668048243457558,0.9827535089080588,0.9243839537238787,0.9243039489614605,0.6023728307260982,0.9379106223449597,0.4630142755254485,0.8838665323732281,0.2231361509469755,0.8234630031122798,0.3793501283866833,0.844638736182854,0.3473090060324148,0.9172791133389953,0.45853014628404476,0.6532620778558857,0.22697137613806984,0.9533695581616894,0.8284449522940386,0.9849839640015882,0.9665816560290252,0.6910349796767984,0.09744356587227163,0.7329794277447302,0.1959611823444276,0.7946138731430519,0.11904821595489681,0.8464109868667326,0.40063061275057116,0.5839606469404487,0.859959495400532,0.38414554938201395,0.8178019157839675,0.20797703528514555,0.9326632131397695,0.6093189743652527,0.9736257386557694,0.8648912093372814,0.9718356805134177,0.5569748545976565,0.7979082267727958,0.15358257245769383,0.6557095455775339,0.10769641601343619,0.8989446654023666,0.4986972078392256,0.5755178152421514,0.05603985400534495,0.7520682382694766,0.19819366741365163,0.9669159979620431,0.8638616555795346,0.8667687963177799,0.45630013508085543,0.9122006872405235,0.40184352289975184,0.7962188480417096,0.28832780718945533,0.8260667682302407,0.3386638347070877,0.6270316989616191,0.16737901466793176,0.933026283995184,0.7122652252466416,0.981715389318782,0.9579134977531963,0.699801488459158,0.09056048579593594,0.7201758985399929,0.16028016538814446,0.8282978195912406,0.4037456342502619
16,3.3738782893755146,0.6301209907828377,0.8949022965967964,0.3957985597218363,0.7766780134415641,0.26498839936879903,0.8233084582968101,0.04395804751035955,0.9639212484308362,0.687369941954531,0.9824625005187638,0.8982113386763081,0.7845072925318611,0.25758431365640366,0.9695058317478699,0.5313459524761323,0.7327635507725425,0.09103663476124284,0.8116218670505388,0.15443322667777704,0.8824098060130269,0.28388738394951224,0.9603199501440598,0.6893697991633388,0.6534102766770159,0.1320994161815834,0.931976389123237,0.6716863311348504,0.6188034317309727,0.09029631886886552,0.7883296830010833,0.27073305829004063,0.9760533423619155,0.883768834007869,0.9567773468033697,0.6879385899272548,0.9316370521524063,0.48426166096385354,0.923661207649317,0.19500542225412235,0.8242664494564462,0.3656020867245815,0.7974760070348306,0.34788778894493605,0.9033993212890123,0.4471851835914422,0.5829203489291037,0.20131170436571025,0.9581414267180837,0.8423790953091739,0.9884675936068008,0.9752845811825603,0.6627914324101091,0.1310422629368803,0.7059899830421026,0.20054765730469878,0.8228938158055428,0.11376848385462147,0.8431927115477149,0.40495650263426014,0.5926809271819333,0.8527508153787343,0.3260699251889431,0.7727474242933736,0.19861723211856147,0.9517392593487904,0.593238793099064,0.9794950099590937,0.876825543910348,0.9727852180598588,0.5124872306615059,0.8486373807851236,0.17269162389292209,0.6482107916435254,0.09703452068122025,0.9065199266801929,0.5440084389917434,0.5913555683693102,0.06748670370066007,0.7665170201464624,0.202467671001107,0.9613966019898385,0.8198410438206596,0.9102413234416303,0.5013602810075656,0.9033852557640402,0.4074051985332772,0.7889286167381182,0.2801253362093821,0.7857780134501594,0.31951238331592974,0.5569764042530166,0.14836346596361022,0.9305590801490824,0.7181393437144499,0.9837619526569453,0.9655466052682984,0.663845020821607,0.10715890364197754,0.6907197415560569,0.15352112809279764,0.8233175212742481,0.40059506864070116
17,3.3399644255895784,0.6502447144170331,0.8972067888662499,0.44694677228700375,0.7830961322502126,0.15114309928244918,0.8457382012711074,0.03676535004262399,0.9497702636855818,0.7138902432060658,0.9775959099215819,0.8748222770566985,0.8582399079965574,0.3200295063583638,0.9843985059526461,0.5422908662752082,0.7310907253621719,0.07730641039248767,0.8587978990298034,0.17015628410371897,0.8662301652821249,0.30320570686626375,0.9691097077848709,0.7163979490304858,0.7202853477880717,0.1400268600289896,0.911820696184987,0.5006477806402073,0.748857889897713,0.09574399736577584,0.7999981081080563,0.27081664078704104,0.9804272184554245,0.9080453560435611,0.9326713060260289,0.6287202709979898,0.9534383966821842,0.431924173153817,0.8801447451614,0.19369017012841044,0.8179908808059303,0.3681141607976576,0.8204405116169823,0.28144579264252384,0.958953229315808,0.5441093270748302,0.6326504961598547,0.20377756086116902,0.9597107010757151,0.8258846345731641,0.9896650511717314,0.9740187481735646,0.7055400762320738,0.11626974239332523,0.7490799741205432,0.17081110764354962,0.8018286165864529,0.12104928606277014,0.8601706233139951,0.39743035979534697,0.6076619214429455,0.8537279685072672,0.36484815357446787,0.7775620458069457,0.13312311196819512,0.9412447805222593,0.6204080686812607,0.971618503369626,0.8531507701182865,0.9802887514904862,0.5104410481082605,0.8202866732278498,0.1711716772481265,0.7075706697426696,0.108622977072375,0.8934514451637143,0.4061949175909979,0.6960854138240112,0.0672496651019253,0.7725423018615164,0.2006249913338972,0.9638619814885577,0.8400989122847926,0.8772695092422376,0.4874291765379002,0.9269142211858564,0.36709164487695767,0.7745204500377459,0.26517466259093697,0.8095693508067571,0.2498209115885498,0.6088428328463652,0.15590345024292654,0.9401817609345794,0.7028367211368397,0.98516884653328,0.9616510304131121,0.6939784473184228,0.10893875072645501,0.731470568722205,0.14263647334566454,0.8363078261316177,0.38587085572709634
18,3.311186125363117,0.5628431591761696,0.8628288390009269,0.3998314985289245,0.8099216880687601,0.2268203968692679,0.8286358047569462,0.03851793487834738,0.9375677962988507,0.6740279234739704,0.9649245001619499,0.8623838070023746,0.8095840618974959,0.2636597209169968,0.9884055053227028,0.6298107538954468,0.7414088817600224,0.10336982431976287,0.8007706406336063,0.14951475508795847,0.8367546823753416,0.2590377057328794,0.9761345139398904,0.7539180523859599,0.673777053172641,0.15841592307934746,0.9126845040180598,0.633810646298033,0.6639170689380238,0.07772079735818607,0.7547583853332892,0.21831764328447384,0.98430548978325,0.9306725354153658,0.9324175920759087,0.6697179094074205,0.956369901840054,0.5158257734712252,0.8933982659591948,0.2587412193083542,0.8128331556130559,0.294151261217373,0.8392436351995176,0.33219541870612695,0.950992095759332,0.5112984762933969,0.6033052942139677,0.20004084627441793,0.9699549469378486,0.8540601371866037,0.9889602668497098,0.9725620346733697,0.6337553365926175,0.07318287231615869,0.7061118369097455,0.18886668331216647,0.8124076255790509,0.11646424362119033,0.8445046203211344,0.40596202836839634,0.5256763807110383,0.8173385712775216,0.3156555649982882,0.7943994727157242,0.16188475005189143,0.9193330777496804,0.5727041098296006,0.9632703043314242,0.8471572230972192,0.9851598215559985,0.5773404202326335,0.7860344221493332,0.1449592132951452,0.6501083721393885,0.10278654765343821,0.891289681540039,0.4890044571151829,0.6256682024141875,0.05750213716272104,0.734627375576913,0.17860143710057014,0.965752275010968,0.8499641014904722,0.8680487882267318,0.48748509065827045,0.9175311371987903,0.43900900016032307,0.762439429510039,0.21304332755094854,0.8121207147606664,0.3145572784154549,0.5814371859539973,0.15783817797588678,0.9422917401078055,0.7273050023075284,0.9846363078172047,0.9599250391490186,0.6327883700919342,0.05927029148752878,0.6820749992509492,0.1406772313440857,0.8158175124689648,0.3898335200538104
19,3.2775597650928794,0.5833892325656506,0.9219917216909694,0.44970891398489077,0.8023547702382898,0.18298710178228844,0.813399967447725,0.04592412413711408,0.9435320154687582,0.7185214608626196,0.9542864931983484,0.8438763546265666,0.8494154417706152,0.3769959258297002,0.9819438141476358,0.6102417167389423,0.8085029292442436,0.10940938399114769,0.776287040341854,0.1440142633071066,0.8374506828606246,0.2221629905719987,0.9661686221823624,0.7190230212400363,0.6831837592271796,0.1464068936753831,0.9147728238171856,0.5791796983605847,0.6546716406396367,0.056735460385700515,0.76324190590341,0.2151989721355761,0.9849790317445589,0.9348987395549201,0.941211024487927,0.6392224200737286,0.9787582547330287,0.5846598710993763,0.9155409073903871,0.1474227738104739,0.8577398967420331,0.2993723415979477,0.8291774321186085,0.3315399622503944,0.9301281369921937,0.5210846218910685,0.5810087433470572,0.20583463962966952,0.9739913136007379,0.866355000589271,0.9907076665512283,0.9740568577910537,0.650663634061125,0.066835205949085,0.6990112244483085,0.17816321778524682,0.8550420496658603,0.11436573024502955,0.8521129622879248,0.40300705942489007,0.5396884549452188,0.8772251909328259,0.36584863421717057,0.7833167535354667,0.15359724472600522,0.9152154740163962,0.5937621665581538,0.9512107458031002,0.8248713302278617,0.9770020855297384,0.6081725812372436,0.7898374728060091,0.13034242944521998,0.6696082368522237,0.1058287425364809,0.8958258268271233,0.4734062587032176,0.6191274784624256,0.04775235084054083,0.7388046323643607,0.16925590398441342,0.9649441330899107,0.8552045125719583,0.8785359169160415,0.45470674743321415,0.9604390356188001,0.4824727285905308,0.8046343411911154,0.19558017894693597,0.8020650091042486,0.2960634785475942,0.5514504463470928,0.1559480321941179,0.9502833215304488,0.7191392073459092,0.9860171255048248,0.959795969558688,0.6617783873659966,0.06482056715074525,0.6685839514786264,0.12849460687938524,0.8222952782638389,0.38925318358476935
20,3.240541777022359,0.6283073712454349,0.9224363163482656,0.5241076348193889,0.8403332173373029,0.22140485146206762,0.8300654575261447,0.03763643278015746,0.9550962777265837,0.7247126676437432,0.9795295341284694,0.8997237298776182,0.8781123215742059,0.3855640483595488,0.989166222312719,0.6642021792117824,0.8577374979258686,0.1272657132020053,0.8588203452925871,0.20064196911533627,0.8637914026352103,0.33259877463943066,0.9739514628410825,0.747642001692478,0.7098006505174667,0.18218902521497618,0.8990897378167785,0.490043640309573,0.7565486798759663,0.12479758925526015,0.8270701454291605,0.2743297354852583,0.9858941956029259,0.9398973567334846,0.9587778264414174,0.7336264408932283,0.9707794002581298,0.597998483540286,0.8877859284461285,0.22779011523519202,0.895819860613862,0.5115925609820007,0.8045657365510308,0.3009837924368234,0.9585578489864509,0.6052079067301748,0.6515255728023277,0.24438844673203208,0.9669004364635406,0.8538730555059091,0.9900586426955996,0.973228872249899,0.7247427401134208,0.09193370705297035,0.7514591528974309,0.1804145588542247,0.8440407745335009,0.14875066803115575,0.8761591923461992,0.44094806993021435,0.57792352985019,0.8698257000870279,0.39289582147683694,0.8313670510377553,0.1891493177056954,0.938242176212968,0.5838377255255692,0.9744970714498301,0.8747905578606042,0.9864967704213875,0.6386701697152403,0.8135949120901241,0.18003506619867687,0.6763483858105126,0.0875958490695577,0.8792559044286685,0.39244815906143077,0.6843703435164622,0.07371424840926011,0.7924467163573994,0.20273143547719133,0.9647332434650928,0.8608766712935177,0.8977759533257579,0.5029356228544121,0.933305851363992,0.49203806657643684,0.8389212266463679,0.32633353931241377,0.7831898256866062,0.28111842240451274,0.6060904129457616,0.15315137132901938,0.9362827294684726,0.6888733896980413,0.9854997443762781,0.958072580893327,0.7143591452250481,0.0786861895869329,0.7195633354592108,0.12652276386459316,0.8413083249687361,0.4042238484156635
21,3.1921109683155104,0.6860202231000472,0.9029571604490063,0.5075270351742406,0.8994407415919714,0.5176909972441065,0.8686812798926952,0.05762744849794599,0.9709683838324575,0.8021414750843219,0.9725381219980261,0.8551178425504514,0.8861571027841565,0.5343020958602405,0.9853564015602233,0.6258993160983521,0.8394707431141031,0.1398368805982744,0.7613014466493033,0.19770758730812332,0.8701692095940753,0.31122489586664187,0.9655088342466527,0.7235344019218067,0.6908727981459291,0.18010887738552292,0.9603586153895732,0.7708568975734092,0.7174741313446438,0.15359369733878656,0.777299312784584,0.2915636344914541,0.9800743558135963,0.9155589628698265,0.9635473914624038,0.7261592151479739,0.9670025184849971,0.47665974402286787,0.9345072604097562,0.2874639988441996,0.8523452318923387,0.4750395800699641,0.8359546116899058,0.38952469287964553,0.9429164058079462,0.5621417891054394,0.6510834529658656,0.24903106739994038,0.9603897333210539,0.7966757889460936,0.9799187678622046,0.9514942273225738,0.7007509987877724,0.11345290658261822,0.6512245138049377,0.16528027621766184,0.876032361914509,0.15600579704973572,0.8701536388426673,0.4619007546232935,0.6139971677722292,0.8415770766740682,0.37729421230448984,0.8834936436324236,0.40818449988366434,0.9486227755251583,0.6513772177637519,0.96863331764992,0.8290837291588967,0.976602474092012,0.5688732531533137,0.8031755128198356,0.12083457750749552,0.6592196066703692,0.08104110036588393,0.9306807170346929,0.5866078128657969,0.6560339463002187,0.09707962196094938,0.7383750804135525,0.18663435652768834,0.9546705302933809,0.8181419685462802,0.8960470867269134,0.49492061157305167,0.9431846947747913,0.4025038195114933,0.8060826316933191,0.32732031909073317,0.8092351308963687,0.32391821885973987,0.5988051109851293,0.1577351017066181,0.9292640753320411,0.6491629662684839,0.9723412563841703,0.929701547651011,0.7064077929527864,0.10464063840087029,0.6316432784457409,0.11711769148444548,0.8327047869648444,0.4116086632292328
22,3.1681206868493375,0.7221435492285906,0.8905977391121565,0.49448855859567464,0.8035537283322146,0.2597584894764135,0.8449747425722964,0.040980007075873806,0.9697685944772527,0.7629978965156681,0.9834018449632668,0.9064232273348132,0.800796515200487,0.35469448383708213,0.9679869429933124,0.5739026486381484,0.8684188138865405,0.17950896591478818,0.8405122113836098,0.20267584798921015,0.8784892592505777,0.3693883312954963,0.9460372339486471,0.6508068090461147,0.6907988827104878,0.22108176924219186,0.9406829098270152,0.7111214980343001,0.7063733592490324,0.11905165172814125,0.7987657124970163,0.31384271293898885,0.9848952827124783,0.9273617640809213,0.9729459352507346,0.7367521156922603,0.9674654362786853,0.4582120291443542,0.9211968848074537,0.27219183217405957,0.8537232941882673,0.45902278911708716,0.7861390195949018,0.39233801668597523,0.8983744560054904,0.43016560679682114,0.6625556148881806,0.2610336431575407,0.9688048280717121,0.85306179211766,0.9895508727866503,0.9752349647833973,0.6384438583387908,0.0877845112742416,0.7572823082665909,0.2388650778017012,0.872860803922687,0.16631322891706457,0.8644784673398762,0.44353786676449963,0.6473131102332861,0.8394456237952321,0.36522683670960776,0.7850997823609632,0.19430536673416687,0.9496428753538669,0.620704275508999,0.9802769267419433,0.8813419069121937,0.9586685296785153,0.5472332983715221,0.7997181273515063,0.15139347372827675,0.6718585608293816,0.10730275349657335,0.9138479781750336,0.5771576357243525,0.6349157527351341,0.0764767474810393,0.7511800784408079,0.18823183663813156,0.9632546809323652,0.846882954541751,0.916228897336895,0.4945452588389438,0.9275422893947016,0.3757573122997842,0.7907474585830367,0.26126219071497425,0.7561457184781175,0.3099364846262373,0.60706564136855,0.1572286788412181,0.938802444818464,0.702482753651913,0.9839357671537647,0.9638271178304451,0.6333238444601155,0.06374920812106494,0.724410282970008,0.16022035576298874,0.8263055630479201,0.40226332232670925
23,3.1241514182221666,0.6850513030732156,0.8995780989800892,0.4692802557256682,0.7977581511986024,0.19747612559404054,0.8048148932540312,0.03684757053306936,0.9195647993890061,0.5733722617387489,0.9735477798332226,0.8859900538784353,0.7881473278881678,0.25888913358520577,0.9718022359805799,0.5686491821618872,0.7861656969827863,0.15702609603589388,0.8188909720884421,0.16605131595731737,0.8203644690182628,0.30271927703844725,0.9492585606039208,0.6261847355434327,0.6512397484514585,0.17699801085340203,0.9058576306792857,0.5134974950891019,0.670335694257425,0.10219885212672188,0.7862980681490054,0.2639558704432156,0.9867496184317464,0.9392872437737498,0.942987762681829,0.69174577747546,0.9277887068201915,0.4237845983266518,0.8776481021558932,0.21779637664106943,0.8217582982475601,0.2949628214218875,0.8129043717279012,0.3156312136487751,0.9242466807610095,0.5110636550578589,0.6481293333894087,0.2473882772067689,0.9542571877163288,0.8380572781071348,0.9870293064193268,0.9709819582379328,0.6436192119970029,0.08314797873383913,0.750115054935148,0.22045995185168038,0.7772878482935329,0.13082589486401416,0.8427909146546844,0.3994381879161218,0.6070656629648953,0.835866904163515,0.34715389763819393,0.784781321806871,0.16086859472732795,0.8965318683227983,0.4351562601752909,0.9685375727377342,0.862075176389706,0.9635727472365578,0.532096911318458,0.7612345587721785,0.13269794117205122,0.6331600233548369,0.07109290372392464,0.877485666459508,0.3886593475818745,0.5946763607160732,0.05445608483978888,0.7433410951739634,0.18324463289533416,0.9620634667912085,0.8359221038240547,0.8575473812172665,0.4560393058498545,0.8542499175859735,0.34615945534536074,0.7586273564029807,0.17607093430526502,0.7842948906788767,0.2695528997654531,0.5945646117095247,0.1555402703355208,0.9143420214418488,0.6665569413893478,0.9821977185261687,0.9600949116545445,0.6350953523930292,0.0659157319014657,0.7032525927859983,0.14156295552860165,0.8052711714138455,0.3620458630180709
24,3.088066888111416,0.6243820029316042,0.9267132388110475,0.5608674704682238,0.7496088723114934,0.15032707432250497,0.78178455100412,0.050551572751358964,0.9312656990286912,0.6807217227697198,0.9731597175347952,0.8907801894569416,0.82268256698249,0.3317051737863867,0.9840517953384197,0.6005379169398389,0.8657205993515541,0.16010491409092098,0.8318822708316735,0.2568585778159105,0.8608770002145651,0.3704924638436913,0.9728630709423197,0.7667035678493915,0.6764603206164064,0.21355726467713138,0.8637704605600034,0.5275112561723114,0.723761760294327,0.14471155349614356,0.8118370328101838,0.3568447283721006,0.9903767726525154,0.9576250738670937,0.9591901140463597,0.7443635120469032,0.9419021254469546,0.4652514623195018,0.9220855612562884,0.3575283841943932,0.8452719959136764,0.4904063286144718,0.7601275726275726,0.31306404043727504,0.9328106238323361,0.4818573993219808,0.600054430530161,0.26521516246396737,0.9742440567339062,0.8995363887159151,0.9947697939546397,0.9856623448962191,0.7213134948790036,0.11744863383833488,0.718217477861656,0.19750137304551743,0.8214621949560623,0.16275592219258653,0.855652327547258,0.4464461240273834,0.5510173660281732,0.8655086255276578,0.4003181853210897,0.739097031515627,0.12422290737771577,0.909184392274323,0.5256206980001966,0.968562780155293,0.8673299959374368,0.9782766526557127,0.5576849256635683,0.7962526724496628,0.19123728767345882,0.6429113797866735,0.08705718398080198,0.8389517864542259,0.39482146302698967,0.6315069451184352,0.06281072948576359,0.7423505599298037,0.19514976587869318,0.9608831677493314,0.8292665931324551,0.8817344589409055,0.4929515178105839,0.8831547642958845,0.3811417400800495,0.776491071387449,0.28884266224247707,0.7362980357829233,0.23941401984943889,0.5467728870993012,0.15730085939586314,0.9345951436273313,0.7080385925179805,0.9884773753738014,0.9652384622766682,0.6999307743567516,0.08739806535580494,0.6735713995265998,0.12144784738568905,0.8097255952003847,0.38386467511963623
25,3.0526362335082773,0.6307669374673921,0.9066595516736616,0.6146536444664197,0.7428755695462269,0.16884582261653192,0.8095448270317227,0.04122479293570833,0.9604765695787312,0.7600183567726407,0.9772423513914084,0.8979956781655297,0.8162586335440493,0.3866104717555705,0.9508585809095363,0.5343377201044741,0.862321745413426,0.20185597953497558,0.8086292683973638,0.24398563093776585,0.882912572306261,0.38685241433691586,0.9619217311168861,0.7200487454033381,0.6657581760610509,0.24039944615390318,0.9092571041227504,0.5751402061187502,0.6937570551644985,0.13184215508485717,0.8031236091488836,0.30624855941556256,0.9917563578710251,0.9641471308670422,0.9682674277942258,0.7832287060821327,0.9490013515415869,0.49975793924133965,0.9165828357086689,0.26618267765101505,0.8647772701978941,0.4825801930167373,0.8130660152718976,0.36551097583389364,0.8887643055985154,0.46353045925397,0.565534877496845,0.26391259286485846,0.9659978821641771,0.8637325882233015,0.99064477292341,0.9793453781854042,0.7450180659999056,0.15010152322744294,0.7543823879183513,0.2531764079262729,0.8349262086859723,0.16352993570372154,0.8571541823063903,0.45388557613857416,0.5567563538794067,0.8350439613172941,0.42524732734821846,0.7245099035102467,0.112476296312698,0.9383926935810103,0.5606464968356071,0.9718240033252156,0.865081416012155,0.9355131646187348,0.4612104828299193,0.8195739221731013,0.1662586723821174,0.613742185386138,0.05577976645110201,0.8789309917489512,0.39999486715579646,0.6169518361412584,0.05642602363227904,0.7426387403524977,0.18616938328807356,0.9595819003948542,0.827359935935094,0.8891601769718459,0.5193354321607025,0.8863626944062396,0.38887847294749994,0.7791856286372126,0.2813481449074814,0.7834770514018299,0.2943561177798812,0.5162094980593956,0.14807000981027763,0.9233703389502511,0.6733343304912731,0.9843775048555661,0.9614267567110785,0.7234165981958203,0.11844484404420844,0.7050401491253226,0.16281593333673014,0.8113651471576393,0.38323303551860965
26,3.006194528148875,0.6868400785073663,0.8795232336724927,0.47910865531594665,0.9163436501193818,0.5252039694400958,0.8760725092117055,0.07721243928131212,0.9388278365726808,0.6233346665808319,0.9553742488655169,0.8524316497926661,0.8558659593839378,0.4145538439527142,0.9910741742334097,0.7606812140917533,0.8229047321802478,0.1493686575656626,0.845623854408113,0.2689520189558227,0.9036398090189995,0.3470671656760625,0.9540458960651941,0.7204017784993886,0.6973855538822413,0.26833785832149154,0.9409150628091795,0.7521984575170672,0.8083039412659453,0.22250685546791146,0.7690444149343274,0.2316664011310862,0.9910085600878007,0.9622738788054709,0.9600073520335527,0.7383682729824229,0.979622467896947,0.6481070854202463,0.9097620518868215,0.36338132283001384,0.8787578983769353,0.3568011619343194,0.9282662591486122,0.5180907769693915,0.9629089104378564,0.6726750164745054,0.6820376857008139,0.2965020588326495,0.9618713095295701,0.8300064001895714,0.9828462959194124,0.9616366176390108,0.6139020019845163,0.07568992607314312,0.7272107431564099,0.22496194712121237,0.8586367032417367,0.1562396868590698,0.8782779684294413,0.4820628494186014,0.5970783334575539,0.8018518247403394,0.3175803023334643,0.8810992639503821,0.335558336524026,0.9158387896666145,0.4881883090349177,0.9516003518652569,0.8253301717404998,0.9799011099806179,0.6718985707894832,0.8225352575557774,0.13107967692920378,0.6458051010381511,0.0751293343292179,0.9014935113674639,0.5382464882489634,0.6937206576120363,0.07749310090356314,0.7285745671941253,0.1340829519101328,0.9592520591856665,0.8434035790485287,0.8784835630754707,0.44466627885034443,0.9317213341061441,0.4841059405637508,0.7989550661486484,0.1875084837931577,0.896171586327635,0.4257186205725387,0.6105779496298881,0.16074181750272185,0.9124145249748687,0.6271444397176092,0.9757988562444123,0.9331468193085555,0.5940952251558655,0.041579072933834144,0.669347127283,0.12723240652150988,0.8274618863551181,0.3934917350778012
27,2.960852578075411,0.6810017142431244,0.8668445195454799,0.4107976244427144,0.7725851322564379,0.2911062539515028,0.8746048134225186,0.11391508221270301,0.9531644769145918,0.616524721179578,0.976562719878416,0.9076896400414227,0.7359992478680983,0.2812125305113662,0.9583009601863106,0.5579350632099106,0.8205579128223902,0.12594877176747007,0.7983397535400347,0.2343242348293028,0.8776495123601624,0.30569551929417815,0.9440558178210271,0.6835354029720248,0.7081476690181133,0.26950251572002343,0.9526745219149012,0.7709292570731373,0.7047768313289675,0.162086425348229,0.8198065798472995,0.28679103636654113,0.9904489506473062,0.9587111954867228,0.9347702389151713,0.6112696129855086,0.9111551501930284,0.4601558241268484,0.9084754430269785,0.30679219986813594,0.8420342206297824,0.29877810448191355,0.8028527679262973,0.40552231582564935,0.872699288090422,0.389152241846878,0.6273930488041524,0.26595927956053744,0.943623013260458,0.7700334767243265,0.9714218199771493,0.9402519857011202,0.6639936319117515,0.08485748486381448,0.7664444533787453,0.25156648453645336,0.8464547734045086,0.13981417516890235,0.8516370453175179,0.4250306592891756,0.5839606469404487,0.802502013029793,0.2908774792563541,0.7480299230323749,0.1595888314032452,0.9336271286309719,0.4854399477175157,0.9673749482193124,0.8735910982115945,0.9428981497253824,0.5128044217936485,0.8170515639735886,0.12414473680737881,0.654368920978055,0.07627217505785061,0.9189489750488508,0.547648425684269,0.6121309781398615,0.056264290558674435,0.7559722673920114,0.15688465357864273,0.9539103829660767,0.8183542984369914,0.8481076268043731,0.35094594470564117,0.8130467301876362,0.3143202513350774,0.7581866724615036,0.14589557198022998,0.7433243693659572,0.2930028019278593,0.5453152129496379,0.1246858967742288,0.8917801713632385,0.5563002880821786,0.9671843207602429,0.9271016329195334,0.6489914837362869,0.05944297078858382,0.7100191971030994,0.14276149552448417,0.8016385517934129,0.35081636062719906
28,2.9225145718559196,0.7042061066805794,0.8781015807267155,0.5124713919176072,0.7923755923515801,0.23363129643788652,0.8485174988087043,0.06035127408566929,0.9568772218991489,0.7155484522540972,0.9682828709138689,0.8667382444398385,0.8209235719359433,0.3200414296432086,0.9744861380657559,0.6109687643873507,0.7848492271061982,0.21339651228366346,0.8598074875306075,0.24112539241730221,0.8506330766193292,0.2931073524808863,0.9345284606095701,0.6255952577187278,0.7408767211957233,0.32073402046618626,0.9011075724232979,0.6364332711656107,0.7516034720349528,0.20627676978393014,0.7901978976303002,0.3128641299661094,0.9928937052437239,0.9649234745837384,0.9456254309034933,0.7038973992878814,0.9617443151488368,0.5654192910243735,0.9050977554337827,0.3505446427122816,0.8473984524354358,0.3372614398957484,0.8986817700052994,0.4527938545232809,0.9281318104498675,0.5265465247328683,0.6866769364116402,0.31206245734995997,0.9661919620317286,0.8547675442528567,0.9858375001453544,0.9628277483132532,0.6406193861992966,0.09183895690520495,0.748075086231994,0.237348793599376,0.8468049568854857,0.13889459716134298,0.864533837763487,0.45244322442108,0.5966311395990161,0.7982540728269445,0.33781820813200686,0.7584852953539203,0.15347343043243208,0.9296409679192155,0.5457350251069594,0.9681114267387518,0.8472434304950422,0.9664275750307304,0.5378974144940123,0.7709478092515027,0.09725328033955087,0.6467471269278421,0.06465387036360877,0.851018135621079,0.4370031090202236,0.6300305484350409,0.06393347816404518,0.733316970258625,0.1585946972399009,0.957136953537412,0.81613611675285,0.8715754341501721,0.4421129915249211,0.9011503531528706,0.4075555834987988,0.7528380673884253,0.15695914605582192,0.8612264923813292,0.3496498064810089,0.5950759282678955,0.14911494107826684,0.917994918309046,0.6531192528942821,0.9804379290367996,0.9447977673044685,0.6545030094824034,0.0715927604943355,0.6913975790676672,0.12996553919825624,0.8118158296568838,0.36823049245353956
29,2.866345277155637,0.7131002956448287,0.8963122198185625,0.5428098247338832,0.8308562463608311,0.48729860649717816,0.8962774708843433,0.06791776259824603,0.9496311086287265,0.7539765786897907,0.9398102975487149,0.8295708448505146,0.8406963844112795,0.3733928022661158,0.9844359334932583,0.7315456210427169,0.8605445330285129,0.22472303318132097,0.8801062472882571,0.35632943884254004,0.9065980324402907,0.4593167636715891,0.9648757706132421,0.7117906613837732,0.770265063802411,0.37020092476761557,0.9568679276775368,0.8748580536886612,0.7919227883022195,0.2715767046786969,0.8282738760107528,0.379572256297803,0.9946623440929715,0.9734653790025121,0.9640410803400744,0.7842927105374302,0.9424256661737642,0.5492958343820608,0.9441012781779583,0.3987727534687032,0.8944372543335629,0.49453659323085714,0.8854309828574534,0.4639833568866039,0.943313619677375,0.5859076170614511,0.632215543207819,0.2784384284189493,0.9717189121174941,0.8985253333340502,0.9836572597128094,0.9659195004270689,0.7248155720077282,0.15877012662158912,0.8089186198148905,0.35643580050685864,0.8557326212856892,0.14670432899571334,0.8872480233610188,0.5174974157165819,0.5924573302526646,0.8143688846594929,0.3456061244253354,0.7849674942554503,0.24361082663561073,0.9267469551866169,0.6082003188788506,0.9431049653095086,0.8217818353502235,0.9802323547150006,0.6382014804185011,0.8196053196053196,0.15985797108608302,0.6882431181555376,0.09131366290773565,0.9041293875146281,0.6490820152537461,0.6410560072086884,0.08221205258549934,0.7750976941827995,0.19394084084272148,0.9577301016147979,0.8144939173618682,0.8629973366966708,0.45100661927821545,0.8431509640049966,0.39489870634854396,0.7861025870345549,0.24108465664513803,0.8423611286462586,0.33961315431562283,0.5507527413157346,0.13235941997199963,0.9158972301750767,0.6690225253099426,0.9775252476595658,0.9474527659644505,0.6965004388603864,0.09805547080834595,0.7307914471234307,0.1843629879819256,0.8220680701962257,0.4053078676185179
