epoch,train_loss,train_accuracy,train_1st degree av block_rocauc,train_1st degree av block_prauc,train_abnormal QRS_rocauc,train_abnormal QRS_prauc,train_anterior myocardial infarction_rocauc,train_anterior myocardial infarction_prauc,train_atrial fibrillation_rocauc,train_atrial fibrillation_prauc,train_atrial flutter_rocauc,train_atrial flutter_prauc,train_bundle branch block_rocauc,train_bundle branch block_prauc,train_complete right bundle branch block_rocauc,train_complete right bundle branch block_prauc,train_early repolarization_rocauc,train_early repolarization_prauc,train_inferior ischaemia_rocauc,train_inferior ischaemia_prauc,train_left atrial enlargement_rocauc,train_left atrial enlargement_prauc,train_left bundle branch block_rocauc,train_left bundle branch block_prauc,train_low qrs voltages_rocauc,train_low qrs voltages_prauc,train_myocardial infarction_rocauc,train_myocardial infarction_prauc,train_nonspecific intraventricular conduction disorder_rocauc,train_nonspecific intraventricular conduction disorder_prauc,train_nonspecific st t abnormality_rocauc,train_nonspecific st t abnormality_prauc,train_normal ecg_rocauc,train_normal ecg_prauc,train_premature atrial contraction_rocauc,train_premature atrial contraction_prauc,train_premature ventricular contractions_rocauc,train_premature ventricular contractions_prauc,train_prolonged pr interval_rocauc,train_prolonged pr interval_prauc,train_prolonged qt interval_rocauc,train_prolonged qt interval_prauc,train_right axis deviation_rocauc,train_right axis deviation_prauc,train_right bundle branch block_rocauc,train_right bundle branch block_prauc,train_s t changes_rocauc,train_s t changes_prauc,train_sinus arrhythmia_rocauc,train_sinus arrhythmia_prauc,train_sinus bradycardia_rocauc,train_sinus bradycardia_prauc,train_st interval abnormal_rocauc,train_st interval abnormal_prauc,train_t wave inversion_rocauc,train_t wave inversion_prauc,train_ventricular premature beats_rocauc,train_ventricular premature beats_prauc,train_mean_rocaucs,train_mean_praucs,valid_accuracy,valid_1st degree av block_rocauc,valid_1st degree av block_prauc,valid_abnormal QRS_rocauc,valid_abnormal QRS_prauc,valid_atrial fibrillation_rocauc,valid_atrial fibrillation_prauc,valid_atrial flutter_rocauc,valid_atrial flutter_prauc,valid_complete right bundle branch block_rocauc,valid_complete right bundle branch block_prauc,valid_left atrial enlargement_rocauc,valid_left atrial enlargement_prauc,valid_low qrs voltages_rocauc,valid_low qrs voltages_prauc,valid_myocardial infarction_rocauc,valid_myocardial infarction_prauc,valid_nonspecific intraventricular conduction disorder_rocauc,valid_nonspecific intraventricular conduction disorder_prauc,valid_nonspecific st t abnormality_rocauc,valid_nonspecific st t abnormality_prauc,valid_normal ecg_rocauc,valid_normal ecg_prauc,valid_premature atrial contraction_rocauc,valid_premature atrial contraction_prauc,valid_premature ventricular contractions_rocauc,valid_premature ventricular contractions_prauc,valid_prolonged qt interval_rocauc,valid_prolonged qt interval_prauc,valid_right axis deviation_rocauc,valid_right axis deviation_prauc,valid_s t changes_rocauc,valid_s t changes_prauc,valid_sinus arrhythmia_rocauc,valid_sinus arrhythmia_prauc,valid_sinus bradycardia_rocauc,valid_sinus bradycardia_prauc,valid_st interval abnormal_rocauc,valid_st interval abnormal_prauc,valid_t wave inversion_rocauc,valid_t wave inversion_prauc,valid_mean_rocaucs,valid_mean_praucs
0,4.705645493668997,0.5081364438150605,0.8793606288573595,0.2636291853402872,0.6819730035437868,0.08615275730186209,0.7854380536092824,0.0217509063163088,0.8811513272713698,0.1468726510097335,0.9593712926263007,0.7196199878164139,0.9420038184435333,0.568164785137907,0.9795656063681543,0.5102105055834403,0.3512499659798548,0.005093199058090558,0.7402818165291812,0.04089626430201305,0.7871976866117796,0.06483505840241412,0.9419824003587368,0.16077209623818847,0.5911570081571084,0.032335180523435834,0.868557261855341,0.4309760753176449,0.5457783323823363,0.027413110848476033,0.6680705396688653,0.08645495493509767,0.9396425977358683,0.7610211175187893,0.8514901110023378,0.21488410379806752,0.8436595677481076,0.18738218176750976,0.7543752589198529,0.01675968520829045,0.7408988070992415,0.08623564697795917,0.5832836917395741,0.03999378503569916,0.964438676322248,0.5963761493852128,0.6261161601429481,0.1348217286121936,0.8262075794242546,0.4360654939031548,0.9496805405954112,0.8579967503234811,0.5990219272045276,0.0575521079795754,0.6370483939403018,0.10202167671764631,0.7446540735431127,0.03471334989673305,0.7737020045600279,0.23896430340198663,0.5040620108817172,0.8656682038894176,0.24335944554937966,0.676422943638028,0.07846855843248915,0.8785466481085235,0.1431492056808796,0.9611357066748051,0.7192560372340283,0.9738728701585095,0.5116138223676365,0.7715695957830021,0.05677036668697577,0.5923208157104001,0.03160333919168194,0.8662670353319037,0.3994551677498879,0.5806888312904275,0.03568677545747191,0.673686391733028,0.08493367820316598,0.9355620126240113,0.7501089385075433,0.8493699691231327,0.19831931706473108,0.8699229293356313,0.22507769913329656,0.7338177925775007,0.09507273720750571,0.6010406759308358,0.03221946618079981,0.6320433522790595,0.1393154186588796,0.8201307348158594,0.4278512576170444,0.9543325972911592,0.8624201151877525,0.616536194659921,0.0643940311662528,0.645303879227322,0.0952219095526462,0.7749119590091239,0.2597148643415025
1,4.251427494953299,0.5598867108891704,0.9315650217065734,0.4337717452552376,0.7257699982937277,0.12220771463095442,0.7791340898795762,0.018164358275913183,0.9109581325122276,0.3227562239771379,0.9713688816259279,0.8219218903276507,0.9366240493823217,0.540982559564301,0.9760887520123188,0.46728143690756235,0.37727498198029724,0.005483232387356396,0.7681445660187755,0.06916064332003152,0.7829984369973142,0.06750525761787601,0.9474902547878652,0.31016715056522687,0.5641822965120543,0.040469085098287685,0.8497263176047577,0.47975845843438486,0.5912509831404762,0.03216884677458344,0.6887695860979959,0.10980808662033348,0.9480646010251947,0.7838808863543942,0.9082064526479033,0.4358762990508592,0.8969382266535011,0.28025681078485115,0.8250116680400601,0.03281598289755507,0.7706448822618697,0.1440648969742051,0.7338318845671786,0.0878230315248559,0.9604088741213623,0.5127536387639652,0.5897839072320639,0.1512449605029727,0.901131089671148,0.5842478817871976,0.984468639563028,0.9461054259446557,0.5926526169042359,0.07954209085990896,0.7198069549634631,0.14947229426254843,0.7601530695995394,0.03454835723976611,0.7997303291358128,0.2880085445251633,0.5617500186330774,0.9268199009345337,0.3976779066226416,0.7182242919725756,0.11552639688441603,0.9046772752768141,0.26916520954234663,0.97188988880716,0.822575702186404,0.9766521953308073,0.4956992166497246,0.7597688562120848,0.059482653737782054,0.5675692456672505,0.03390896896232342,0.8443890062592694,0.46253229329933115,0.608978604201516,0.037389043705775254,0.6900819207225173,0.105692813965334,0.9440524915438939,0.7771866845269026,0.9001298930514159,0.39303370158339296,0.8958662909734803,0.2931202896563714,0.7631080967352543,0.1556019190245017,0.7426741660985279,0.08845166906562917,0.5886578414793495,0.14669639908640858,0.8957121532750127,0.5724419213621535,0.9841723154371037,0.9430124433107515,0.6006704751553263,0.0958927648795814,0.7320407569265801,0.15378973001114632,0.8008067833030236,0.32094388640314586
2,4.05412107440262,0.5993391468534943,0.9371129732514818,0.5202577923158063,0.8065746372201913,0.2798029357220242,0.8032738567974445,0.020645233435536935,0.9312313689502052,0.5280192968336773,0.9767834778081113,0.8266805093995478,0.93269007303337,0.48988202105055756,0.9801505755391106,0.453139868007806,0.46005868145818685,0.007950542572295981,0.7445907589969432,0.06178744564781382,0.8075597375865827,0.09905513216148198,0.9690746638607988,0.5293057124710153,0.5979498012341982,0.05115473420274723,0.8935057420253036,0.6179017468535485,0.6199680188367128,0.03688560247113311,0.7125276020346055,0.1258927801168575,0.9445178181175328,0.7531062296815412,0.9462449536375221,0.46976682943152265,0.9470722967496036,0.31617145801012714,0.8898134424836308,0.08960008268900958,0.7730645888929176,0.14417684178392298,0.7474759018876665,0.17432790187453925,0.962419496961638,0.4401061309576587,0.594114725470355,0.1659095525775506,0.9212507685516206,0.6723109136113061,0.9654673988709628,0.9057366069615431,0.6326148626904933,0.1025685507448422,0.7283892304546667,0.1566120567711276,0.8058050515211297,0.06201774731424497,0.8225465180329637,0.3250275805596709,0.592606394872177,0.9254245256163125,0.49294300507926736,0.8096438379196323,0.2705412710418738,0.922317551987037,0.47364494332306745,0.9766757279940057,0.8092974137543735,0.9795813747922526,0.4652086993685849,0.787060267224426,0.09282331650819906,0.6027147149713049,0.03924339661077062,0.8885402254970379,0.5826625076737739,0.6443816760771641,0.04444579081713903,0.7122023169298181,0.12179606849834446,0.9424590993362487,0.7508102330685241,0.9344790693708219,0.4220765172821627,0.9515201482368499,0.3001679706108972,0.7694673439591548,0.14492732403394606,0.7459616555423693,0.15549626188454846,0.592830827425917,0.14775084052141843,0.9148698562000709,0.6624471278648002,0.9666957936410067,0.9092500432924266,0.6415004496431967,0.11850112324212865,0.736620988832722,0.15452986866565244,0.8222473725598674,0.35792818615709493
3,3.9256030255579946,0.5213038185386698,0.9141747442651611,0.4715181831818777,0.6172344310267655,0.06385164196862604,0.7510357898534951,0.015001518722035085,0.9331897123763235,0.388848202487905,0.9840607974702447,0.8947540865972003,0.9070828063868729,0.41262337841677027,0.9700171166413204,0.39331566334755486,0.5493546707683987,0.012026892687141163,0.7070605767900215,0.044620564844034184,0.8006699880044438,0.1098085435467859,0.9612787369004576,0.5246544192376701,0.6111836226446445,0.04659142342159371,0.8402570611285247,0.29716956412055073,0.5299621689119117,0.024648970201481515,0.7120239192471722,0.15886207928434348,0.9469804152294529,0.8112271256238939,0.9198491537171346,0.5351935558355815,0.8790088884675653,0.27662461494825374,0.7849854246818282,0.02672154339948748,0.7644601699962809,0.17887161328313758,0.7475815747874571,0.19692811316618025,0.9525776650372076,0.39139477133565986,0.5793652818194417,0.18065381908799955,0.9055004614277216,0.6747748531382538,0.9826362350266816,0.9631232221881797,0.6492482104727928,0.09637992091346499,0.7279403252709024,0.1587429898511304,0.7444851433887997,0.05039470710613516,0.7990430389906794,0.29997592792653316,0.5163598419915033,0.8913866725227535,0.4248423586671103,0.6202412477348727,0.06229871336732555,0.9262676414098395,0.34364209428740017,0.983434859002364,0.8809821832009155,0.9681187877225371,0.3995807338528014,0.7735527691068047,0.09670644780061333,0.6264610301761582,0.04096955418814218,0.8325359728424703,0.2756005348421267,0.5517940128683082,0.029743071095136412,0.7118553449822113,0.1529526805757436,0.9407946086131986,0.7981767099507965,0.9043061033869364,0.5070740651573219,0.8862833091351723,0.27064739853141706,0.7494611304202555,0.20242059233753648,0.7287768603388631,0.17425748152820741,0.5763548293834806,0.16533831362240503,0.9005939448587368,0.6630802087626692,0.9818247680118384,0.9608978011035085,0.6570149730106254,0.1182783479216737,0.7357299928519148,0.14416866054135008,0.7973394429189671,0.33558289756671006
4,3.8441286073649485,0.5807557576209287,0.9266049684338746,0.5084514779162622,0.838221149417752,0.3319550322594594,0.8464681272048774,0.030572963015195905,0.9429210460790789,0.5219789173586644,0.9813396239330753,0.8740186294828818,0.9287078200107487,0.5551102738301181,0.9846342447361555,0.5589573820430843,0.603638267966368,0.01382705503059286,0.7740115812849474,0.057629904762576845,0.8577181532407192,0.1457205305504108,0.967627402759731,0.5875007295962171,0.6156456988643557,0.05998651830439554,0.9352218236788599,0.6841779079721508,0.6339871325269988,0.05179339862381575,0.7543785928031285,0.1699290412896292,0.960237018280079,0.8207763311186483,0.9444472074062724,0.5667093060470779,0.944104290973472,0.43586003306289234,0.8877171904752734,0.11203802731353557,0.7825804611468365,0.17495837610279802,0.7745273756303169,0.17707777755800758,0.9690679221190124,0.5820713289302066,0.5934147192671534,0.1967124874439253,0.946055595366512,0.7520187136164633,0.9839039159013121,0.9665352254326876,0.6736603615979551,0.11888248820145887,0.7155341771684867,0.18162089424749783,0.8010016211291217,0.05667266365269715,0.8416920531929454,0.36762655052726256,0.5688305880599239,0.9087492374887147,0.460616112761388,0.8433873461114535,0.3102869172647023,0.9334858651538129,0.46680226177768147,0.9820598376490848,0.8739942742918082,0.9836944261570546,0.5568798196537343,0.8257941349596616,0.11504365872533488,0.6324818786402928,0.04551882657584644,0.9263563451906386,0.6387768717008914,0.6393606428064407,0.05752246890188005,0.7449072266338522,0.15381066074784286,0.9545872606462023,0.7997589302742625,0.9236030547672733,0.5030835809426417,0.9504221447285948,0.39325185479212527,0.78171636869733,0.16623609981300408,0.7712375184820455,0.17082954631706168,0.5938846329649173,0.16405337159898073,0.939110348427427,0.7206395424784435,0.9829798917902394,0.9649881050166484,0.6832118110592819,0.12386321395042946,0.7149070213886118,0.1629825847944223,0.8357968496871464,0.3924469351189565
5,3.7817858231502726,0.6076122332364413,0.8993547144429009,0.42508119587906096,0.7455870625167784,0.1347648085168893,0.8443800752624283,0.029605928728195032,0.9405082776057356,0.5836049921025547,0.9741961036411745,0.8625864574478238,0.889905489059558,0.41335134734681656,0.9820293082713465,0.55917038598594,0.6004109633539385,0.01574029257086542,0.7885324633392096,0.048855327849457925,0.8393901082639517,0.1459502435606579,0.9462812835433027,0.5346254343150084,0.6208492407404006,0.06096563956127975,0.9170033531536976,0.5037968460774087,0.6289529725422387,0.036736256209888685,0.7419739924098824,0.1839406075293887,0.9674264781170208,0.8467207524072378,0.9435418350508931,0.5937676203985873,0.9490212836854192,0.4034434328830455,0.8632418630018436,0.09837718264447926,0.7931148150668268,0.21976732188497164,0.79241842844784,0.22364937894088813,0.9630781187276544,0.5532183079432568,0.5915671477504199,0.18823716474611996,0.9536249138525114,0.7536665326223527,0.9909777954262984,0.9741056507935246,0.6680743865359597,0.11632050668206331,0.7514683654509616,0.19728232095076756,0.8126021500144008,0.06718864479687514,0.8356968924740926,0.34909002076340734,0.5970038011477976,0.8768121741535109,0.3620383475287759,0.7395667535354667,0.12646088018586604,0.9322014628701792,0.5067495082338657,0.9739430491952503,0.8496461249880978,0.9818229739746144,0.5587731782673493,0.8057446737337298,0.11928230999842251,0.6197368308625626,0.04755967260541166,0.9055285170365438,0.4325191054694453,0.6279652820199552,0.04081121999969527,0.7300057839985781,0.16244070215197873,0.9616474723672852,0.8268235756491983,0.9241507869932436,0.5266282227996141,0.9499321239991557,0.3782977628631366,0.7855618332954408,0.2049630691272793,0.7836948379331532,0.223675104987835,0.5921124484564806,0.169170196435408,0.94891007248052,0.7128177935841189,0.9897897591228123,0.9724956343512525,0.6850603082589859,0.12180677621075126,0.7528913897675374,0.18106138379287234,0.8283539267027503,0.37620102846151876
6,3.7223947891427644,0.6000844699510571,0.8569356575951834,0.4068544140621389,0.827479701012291,0.2187504233313316,0.8188611998454747,0.031207028041448405,0.9511200025017738,0.6014031593410892,0.9711349936007182,0.8420980032011213,0.8733717941610888,0.3668148140794884,0.975043402457415,0.49514923468169514,0.6022797448006244,0.029616659253929943,0.751489469866139,0.05229878328984029,0.8222757858737837,0.14999403660417285,0.9652412822721881,0.664732249473754,0.5807191224547481,0.060004532372726765,0.9379716646675276,0.6151792182495093,0.5675938737500312,0.03343379135741653,0.7412420022179088,0.20423767082388108,0.9699020401502594,0.8687321232451986,0.9380975183739453,0.5723758215649458,0.9318072922661205,0.3605012957826818,0.8350121720502192,0.09227574529144786,0.7734585756403289,0.20656673727939767,0.7379069033480798,0.24042764145062254,0.9444785110875141,0.4652453253729542,0.644616345294211,0.20405281939725442,0.9496171282212341,0.7031647260853788,0.9762557363258908,0.9481291280047702,0.647089443892125,0.10108625461921017,0.7333472386611597,0.1942137090306729,0.7958484022296095,0.04527874400243917,0.8257213215934854,0.34906514604608996,0.5976745919356041,0.8334016543444843,0.3614814059921475,0.8251154164097967,0.19497304072420374,0.9446930824332823,0.5537351120473113,0.97135593511892,0.8379110199651225,0.9756167965710763,0.49051145206833335,0.7846259392087025,0.10140607537638172,0.5890650944874041,0.04674593934973252,0.9263897251212289,0.5409181796244452,0.5762825965741601,0.03763577621710215,0.7257376212405283,0.17612940489802134,0.9627846948017946,0.8462202592654429,0.9118080716137081,0.49812415986121056,0.9378033936087524,0.35381694157332844,0.7645756475332376,0.19508801533921036,0.7328734214860266,0.2356592035360833,0.6442370186243108,0.17797262004209058,0.9412002958217788,0.6568288408861143,0.9779595831920338,0.9472834085859014,0.6620031011362927,0.10996532136668909,0.7363892110996495,0.1754885157523876,0.8211959150213584,0.37689473462356304
7,3.687320616564476,0.5153163896549154,0.8683896984400576,0.36948044933492646,0.7600674898700399,0.12656235713716302,0.8111064047581229,0.0292760581608484,0.9331949108145742,0.6077702925867577,0.9700051047569346,0.8068965575931563,0.8090445857778011,0.2651827012317031,0.9728397716932748,0.4439044092054506,0.5786344269822332,0.0370760877520423,0.7301863631800385,0.04946769930883872,0.8020666576341527,0.1659700650501707,0.9515447573583414,0.6381350680740286,0.5746654683233914,0.04626124027017529,0.9020937356463223,0.5245333864862944,0.5966889420002784,0.033124482752352934,0.7148753826064805,0.13019584093438702,0.9681798654351959,0.8741730826350409,0.9161724158857089,0.5029249845735374,0.8896366998705045,0.25108228714197606,0.8158227023385662,0.09059092151372497,0.7362955528607528,0.17371957841591598,0.7558817705876529,0.17690220512225976,0.9222201406670684,0.34546801180751496,0.6077261551546527,0.179927520880227,0.9301709422656411,0.6143519544910243,0.9747984857996159,0.9027654105266415,0.621698668850066,0.05526637084137333,0.6622160136888801,0.13635778369018872,0.7587468060470123,0.04317345274861868,0.8048203542604772,0.3078764378666549,0.5409555042110755,0.8400858892711612,0.325236349839162,0.74971598339218,0.11665632152049422,0.9230704221096226,0.5489585774196729,0.969648403045186,0.7996560327593258,0.9714544843493191,0.4515512280307579,0.7729933372888229,0.10363700881748802,0.5660266871733527,0.03563518585089981,0.8883580496602297,0.44165478174938017,0.6035735151110324,0.04074627148106565,0.709962631698963,0.1406631304750411,0.9590435401010488,0.8441739433762545,0.8866331126143009,0.43717000006550366,0.8812335769727878,0.25272431872664736,0.72657989903418,0.1715706528465952,0.750696496056696,0.17866351361104893,0.6038845199043185,0.16091018374495872,0.9219930103213347,0.5631341090986373,0.9727043480439004,0.8966081667362098,0.6428724544480171,0.06120532422607635,0.6636153902126877,0.12573768927709364,0.800207287540457,0.3348146394826157
8,3.6546975842843348,0.6275620481478721,0.932793853236515,0.5094625763890483,0.81380202209159,0.22011123849120362,0.8329747680650418,0.028899051764474694,0.9435652854735616,0.6005291338312297,0.9784311795762975,0.8624027487799455,0.9172821272131751,0.4627523886451554,0.9877414050917235,0.5670067730066841,0.6009195535503424,0.018801514632698593,0.7750518484004078,0.06423978315780784,0.8578921171396845,0.2175658338769675,0.9702080744025762,0.6625772537760996,0.6197074421826284,0.07884784670217139,0.9324648644933653,0.6766665647272453,0.710446518395101,0.06805289855047209,0.7772095148023346,0.20780050450722085,0.9729781622169035,0.8699400621277502,0.9504857221933778,0.6210433425711793,0.9494760133467325,0.33970160040270486,0.9329587609053662,0.14320442749919884,0.7939840559744307,0.2692310051400618,0.8080770047681812,0.2959926592388199,0.9731058999599279,0.6071220671130398,0.619680545372101,0.1965058514990305,0.9565118889760053,0.7981647928515531,0.987001007473627,0.9684271189745046,0.6549933038746951,0.10664828611260975,0.7046625198013243,0.17955760707310936,0.8478390764319487,0.09132451132326991,0.8500801619788916,0.3833064086701877,0.6122083923380786,0.9140481012452316,0.4607467938125,0.8061774925741187,0.2007558514266896,0.9312622873729712,0.5195592519397422,0.9783326018133546,0.8542815007120483,0.9866846062123926,0.5806701454435593,0.8206531722263596,0.14872418394665032,0.6276163825636205,0.04900990085013479,0.9206375809105282,0.570327173126572,0.6901987384795149,0.06611572918026035,0.7678487501363589,0.1823982594623956,0.9640600808106541,0.8296294194620193,0.9250602366631564,0.5401958109522137,0.9544395495507558,0.3297657372252836,0.7883575070980471,0.23962909819858255,0.7933282972389859,0.318145002935972,0.6163696807007173,0.16361905533613486,0.9486423893361897,0.7302820271683976,0.9849097545498453,0.9654007216039041,0.6684527313937213,0.11894902273437377,0.7007454125986071,0.1641025180168837,0.8393912676737566,0.40161536017671595
9,3.59423309384078,0.5335022732354475,0.9082359087637465,0.47638702615874806,0.737783267578957,0.15289269232155822,0.7975433817891594,0.03049539981014098,0.9334022571496569,0.5135082210093337,0.9878776691301795,0.914600168909355,0.8681639384463896,0.23307033222398804,0.9825637292643663,0.5067271757866696,0.722793716764513,0.03370481590782247,0.7526966964774414,0.060781248373221325,0.8123304471789837,0.1993398754696931,0.9706351777441952,0.5486553455087384,0.673894729257791,0.10410319197261869,0.8694228195454758,0.5126947143136974,0.5942035673745578,0.04873034203373336,0.7726012577832722,0.21374363838823524,0.9717420410621836,0.8820968390404698,0.9431614005415396,0.6051197157456463,0.9237668730306676,0.36042569861308943,0.8345022203081673,0.10939554103553824,0.8456784261875179,0.27738538917490524,0.7690996183643242,0.30585522716499824,0.955381059229899,0.45216696139922913,0.5904241938973633,0.18469149916806943,0.9531564223335253,0.8126225068786019,0.9857772321016498,0.9684875088292646,0.7227564026531464,0.13420925124993988,0.7600766071985193,0.2352566420889417,0.8041904789590522,0.06418773964917643,0.837280769289866,0.35504766815090794,0.5356637102183797,0.8808631221075406,0.4209784710000425,0.7337039268433933,0.12986679545806773,0.9267426115235492,0.4477310145760195,0.9865246338676692,0.9042649070951808,0.9832358858437187,0.5254396389801205,0.7894787498070671,0.12038608757055137,0.6907212941997409,0.09224479555285987,0.8630414470776441,0.4465361802277091,0.5877973726728286,0.052337028118172924,0.7598205635082704,0.20395593242936136,0.9627898250753619,0.8432839861965663,0.9163760433584989,0.5293220744533896,0.9169814978119634,0.31984337120635936,0.8215224803241424,0.2544775703478178,0.765978026356028,0.319168455234815,0.5839188660991024,0.15746264680108596,0.9458436935462106,0.7479866689178025,0.9850444065932937,0.9668405714590973,0.7311657727716783,0.1501553157150546,0.7576969254673007,0.2015844904454645,0.8294623572427502,0.3916933000892769
10,3.566725185170908,0.6150903083153214,0.9012179906313983,0.4839547923012333,0.7576084311962494,0.15899045058347716,0.8099083437755541,0.03441224971589017,0.9623295172175741,0.736366119364718,0.9791021471343475,0.8458758839275576,0.8731067040743844,0.32538397847500977,0.9855745528356994,0.5665018136191421,0.6315505899312662,0.08312140883532496,0.7723154393041954,0.06710986579073873,0.8404871787672732,0.21613647453349696,0.9615765440511836,0.6266756354939116,0.6226216395056846,0.08135321748346681,0.8959890108976505,0.5686371096874222,0.6658645136274459,0.05852909863792667,0.7589945607151122,0.2161242802700322,0.9760983206197245,0.8946890482051931,0.9402690829469422,0.5997681858467058,0.937230507612695,0.3977152254946787,0.8396766221648918,0.09002429452287329,0.812108739643211,0.34409189330225265,0.814108589843884,0.29240323723949607,0.9598841450689819,0.5290098283750169,0.5864515894098121,0.1952371216748044,0.9633347025695628,0.7929811781618942,0.9896551773466458,0.971197312842483,0.6653345582606032,0.08371467357397033,0.7478568688277875,0.17977005824487746,0.841893896222142,0.09277722766400037,0.8390053558643537,0.37616255942384264,0.5961839457404785,0.8760443761234333,0.4298768641988278,0.7590720684115152,0.14125304854662263,0.9553437442753353,0.6738152357306464,0.9792455863488743,0.836750912060172,0.9847689573732454,0.5628834450700838,0.8063423986816599,0.1377723127243884,0.6300448583756996,0.06238846676188975,0.8897049243513094,0.49749268598989455,0.6495091602486883,0.06556091854583304,0.7448384099645178,0.1820273418583442,0.96581428055874,0.8549651455171172,0.9060562883110137,0.5012604438246924,0.9389061793622526,0.36884636997978176,0.7940790710508123,0.3104133534735106,0.8064435354224007,0.2993511647517891,0.5792561662443046,0.16107182641588147,0.9525253116955252,0.725732012420709,0.9877373832351944,0.9677394402099428,0.6786901473147567,0.08451543587633847,0.7404813828762696,0.16166389413845272,0.8312452115112775,0.4012690159047459
11,3.534158634756228,0.5310923952199945,0.8980258683902788,0.5059911457605087,0.8165937467086285,0.25326406155250825,0.8306926771108484,0.03661243637977253,0.9580220403181087,0.7017990289256523,0.9812369653093574,0.8813344588630027,0.8777151738500509,0.3738961305966737,0.9850666530921308,0.6066726286629469,0.7532201494076982,0.06577609076308095,0.7633666878220638,0.06729044796992503,0.8612249441113204,0.23977162524416445,0.9767186308330037,0.6768436001152227,0.6523725945664558,0.09372495115361672,0.928925386649129,0.6820895238919548,0.6565821156485827,0.05233935581023043,0.7690727359834217,0.20933503408854048,0.9748519663164025,0.900379138119798,0.9507840148869423,0.6127919535749479,0.969321336066401,0.4768584567393968,0.8906688255784745,0.15015828819677982,0.8384029829043655,0.26062485031308047,0.8134208869502987,0.23607848729242098,0.9528066892502114,0.5521978157791109,0.6736870326217324,0.21296934744322604,0.9610661995576503,0.8045716648177005,0.9884408774474781,0.9618642315369341,0.6743532050945663,0.07391169642274957,0.7242302611238807,0.19923893512849516,0.8697984165987444,0.09104407783190613,0.8568096094356511,0.3921224808205123,0.530148319296415,0.8699753556352633,0.4490943817893945,0.8083624063591698,0.22051768428708537,0.9515332186354477,0.6375718964649999,0.9801881598487815,0.8730572626930848,0.9819067634696217,0.6164449256840433,0.8265720283504142,0.16158215228797432,0.6630677432676835,0.05937990558978816,0.9125365031023139,0.5827593173402474,0.6473749088923016,0.05627228539663748,0.7546178533888896,0.18919453468938874,0.9620894719710157,0.8553944747132131,0.9198474599463373,0.49497170027524917,0.9639743901202639,0.46206516845023937,0.808078793870034,0.22468742618246668,0.7896985217169293,0.2085384926640341,0.6593075522864891,0.1809021713212764,0.9496408401422204,0.721396637995068,0.9855874303778606,0.9541250591382826,0.6883353712845132,0.07202026784085594,0.7113759957025882,0.172585675920601,0.841703538418407,0.4096280710361965
12,3.4982845378968705,0.6370028073836674,0.8906174041590588,0.49045358040157566,0.8169460862393007,0.22001461469511546,0.8392201965294568,0.04433003578418743,0.95743661462697,0.7364089791877239,0.9797983373554437,0.8724697788266805,0.8142023267700702,0.32494760926045074,0.9769887182880814,0.5118293973573536,0.6560376319871891,0.05841736120203302,0.7670283886025278,0.0712041657528638,0.8723602757252135,0.2659540584074159,0.9639250165951075,0.6985700563434839,0.6562727162457159,0.10786105601247625,0.9300261259201892,0.6460717735781737,0.6404654997254966,0.07430782914708156,0.7802676721339796,0.2656868240610533,0.9757506315474552,0.8891319315065632,0.9471720355973592,0.6140187591158548,0.9164722465751886,0.35872172793860113,0.8872469858758324,0.15318860780799926,0.7945945227977521,0.3062448881212396,0.790355521973169,0.3137459951587588,0.9479738230710006,0.5189933386364984,0.5898341564047949,0.20670356027396042,0.9487823724113539,0.7655846032296214,0.9780156124206991,0.952852896262998,0.6794489816114743,0.12118764637495122,0.7160493322836387,0.19543907818966488,0.8393952545359149,0.09884190206120325,0.8411673031431942,0.3886850733819851,0.6093761645673399,0.8507333121863536,0.39853700573825634,0.8144119309159521,0.18752529548509847,0.9526709750768166,0.6648554638975828,0.9771768471276149,0.853427999741564,0.9769498321908191,0.5151118085859905,0.8385948974184267,0.17177540584165515,0.6646097321314136,0.07388315009982892,0.9133285879239122,0.5400867804264301,0.6297352215225405,0.08582012157808076,0.7639687643686657,0.21314218241839542,0.963877336928063,0.8375976562642728,0.91766604992256,0.5002650178638441,0.8978085201756549,0.3443612004334909,0.7700625289689502,0.25263987362973844,0.7766108137150103,0.308515880557302,0.5782938186540297,0.17382132991198088,0.93391343551807,0.6877743642848702,0.9763631873580582,0.949065466843569,0.6930692407391832,0.12984937373589975,0.7070821687376139,0.1578931543009365,0.8298463600789855,0.40229742658193934
13,3.4686521400336416,0.6010533899778887,0.9394218403441449,0.5766889388074344,0.8342751181908075,0.2562604274334608,0.8621510680479814,0.03963092912058515,0.9692058788261577,0.768479954391388,0.9866044374475572,0.9102615988161199,0.8825705763745082,0.3775435607957581,0.986794224883397,0.6217306462126434,0.7664429238536967,0.08730488501989163,0.8523889360150779,0.1038212166034272,0.9015146836735509,0.2727850128151725,0.9809868616179876,0.6869345664661879,0.6602664148354274,0.13664482960619995,0.9394491259939051,0.6792081056234034,0.6900992356188225,0.07537855566294158,0.8228977306278387,0.27149827255806075,0.979919774674747,0.9144643776997813,0.9633611253947143,0.6829645411335206,0.9438563212651025,0.43762202663631583,0.9485281674067694,0.1902666664644932,0.8495783532041382,0.3373119389104169,0.8428513759396112,0.345361404156621,0.9518974748167258,0.5024654427182371,0.6142434355162791,0.22073032947809149,0.9625088666948335,0.7873053400566765,0.9874697813504197,0.9672919098608915,0.7349157946368218,0.14513184506676466,0.7687267926937946,0.22888559811777265,0.8482319960426817,0.10559386560130127,0.8739699398566964,0.41891309949405564,0.574420511291645,0.9083197097983716,0.47735084099487307,0.8257762147620916,0.20288206929092106,0.9634676217689285,0.663966249593935,0.9841868893083875,0.8896620444497607,0.9841741440350626,0.6135922531061704,0.8620663853221993,0.1624211992026756,0.6730849745802538,0.10498183652242829,0.924117392772573,0.57837835107575,0.6631000262618535,0.08144655690140445,0.802323777501605,0.21033443128333354,0.9673298695141455,0.8649457041152803,0.9319237458379688,0.5504371878411025,0.9339423682061034,0.38272631740463986,0.8130066033505376,0.2872839414847689,0.8207245102082615,0.34105083305079864,0.6010559052358364,0.17428607781793218,0.9444929344830075,0.6970754339911637,0.9847962813813442,0.9586021215455776,0.73276443225268,0.14075125934370594,0.7554117318483579,0.17550175934359116,0.8538032759214784,0.4278838234179906
14,3.4368503390180436,0.5978236565551166,0.9212017932166434,0.5066530926502105,0.8370125228704659,0.28782455372228216,0.8476319690792609,0.04281964483074334,0.946686162780756,0.7355921479093787,0.9762129298406884,0.8742947836644267,0.8854924514332317,0.3395644386503595,0.9869922688776193,0.5776176773143417,0.8261106150754457,0.10038496281824913,0.8012120735240904,0.11419404985310982,0.889006862864545,0.30461854251224574,0.9780742878227219,0.7766231604895925,0.6376507107530764,0.12093430675990939,0.9306607618624274,0.6871295636612191,0.6948546610810868,0.09976041533925861,0.7847511311698371,0.2479850669679408,0.9805340115702373,0.9188383763419492,0.9506095098123319,0.6555168716912233,0.941314232919229,0.3956402639569314,0.9100904267982611,0.14882169823792762,0.8090872580153553,0.24360227230108147,0.8732331838949485,0.3174991022148862,0.966328338663886,0.5577944923572996,0.6559966379258855,0.22192818665642816,0.9639446736861961,0.8259846861359484,0.9903437159776172,0.9742000959926479,0.689275488587114,0.09269413338152778,0.737893384534432,0.21195043334953936,0.844105471188344,0.11703335078368529,0.8662966977080618,0.4106250132337266,0.5874636654989938,0.8827263336830719,0.4079540380980041,0.8270489477666312,0.2304588119991319,0.9288558980334538,0.6357801745603551,0.9743881278039871,0.8612810045646218,0.9860331659078039,0.558457421277302,0.8494551811925274,0.18995227457675776,0.6528084191338774,0.08183453483801378,0.9119796568234674,0.5766570270886235,0.6704650013226079,0.0929003613053079,0.7620308529766693,0.1877367073803725,0.9662150433773474,0.8644569056670458,0.9162402010070182,0.5192656152532632,0.9261025147596028,0.3554284136743732,0.7811863965368313,0.21993205025287246,0.8482227777356935,0.29296927120451544,0.6418040756730738,0.1758711796475375,0.9425904908151941,0.7310639376646498,0.9866644058739504,0.9638761523746657,0.7087347234532596,0.09884422858976018,0.7238554503079668,0.1655692841108674,0.8443703832092015,0.4105144697064021
15,3.4105143969152163,0.5915380984323371,0.8757940737276046,0.36171384641012977,0.8111039836441787,0.17380966405044634,0.8011711955509276,0.033253207888266786,0.9399842546440503,0.6405249336351996,0.9675238148449027,0.8577604637117052,0.7445952499182569,0.1864117892211649,0.9754676660918699,0.5016099841286183,0.765218242523689,0.09457069778708037,0.7833053823918195,0.09365519743921982,0.8183238142056545,0.2457556740305641,0.946441761764872,0.587017568085984,0.6605724928445174,0.13005094332078881,0.8994759732352631,0.4671407999757524,0.6309289949352381,0.056293833252544515,0.7546529266899515,0.2459498909920071,0.9792651511394251,0.9136098183061159,0.9249476172968564,0.5714330842880371,0.9150957177297823,0.2719574620339449,0.8728682521542336,0.14736366053013847,0.8101724546929805,0.32616411884043633,0.8333512083512082,0.291379436328417,0.9157615267666733,0.4112959801500255,0.6564058476810041,0.20270429192676173,0.945543679531785,0.752339297583888,0.9764717689618553,0.9453010309029606,0.6712471446518817,0.0644494865238689,0.7152876138815527,0.170818338758021,0.7927416988820196,0.06981107112268077,0.8351328395976447,0.3505051989723131,0.5768055452038459,0.8414458027312137,0.31793964274920583,0.8014507323133256,0.15028221188646687,0.9307334936082051,0.5439831476621619,0.9642886623635188,0.8409271751840336,0.9720087840855206,0.5192759182547412,0.7678418109334662,0.13707180449374348,0.6662713433303428,0.0951072125493257,0.8822328874793018,0.3837408954600779,0.6009599373521581,0.05773360919899904,0.7343957777490051,0.19107210184605575,0.9630380241724338,0.8537091534502004,0.8702449723456702,0.4302067144455764,0.876026668350017,0.2600418867117173,0.7747708338828799,0.2627633111197856,0.8085358292160807,0.2869577729240882,0.6311926520301646,0.15353344886257936,0.9254700145714193,0.6151838665573128,0.9743373051350823,0.9371881136163013,0.6867974190264847,0.06777335715147229,0.7015322905118799,0.14469489348482684,0.8186787620594085,0.3624593118804337
16,3.3761401243504343,0.5876872624282626,0.8945350800007027,0.44940360117946726,0.7900564467430207,0.25497206803831335,0.8197598191191668,0.040251867087184125,0.9620197820349885,0.7223883541508913,0.9850487983994879,0.9143688646544881,0.7971770918286812,0.2856236494237208,0.9676190815553871,0.5338675148255246,0.6836088745609206,0.08422336166513507,0.7903499014707728,0.14267998533239604,0.8825720982641345,0.3136959843296032,0.9589324049488729,0.6828310844248212,0.6547567024982154,0.13977517356418798,0.9225174100880289,0.6546969375699785,0.6192541806945284,0.08470405012047921,0.7754895079303715,0.2788185981066489,0.978658433618323,0.8991238729103808,0.9629984151988746,0.6957061133574017,0.9208919928445718,0.4135048803442557,0.9186605458798808,0.1679198308467195,0.8080795187943853,0.36162153896910276,0.7791606045282515,0.35372364641754944,0.9088459627927774,0.4807630005219032,0.5801073715360936,0.21373739689696242,0.9560951132976065,0.8023686476578462,0.9873440047175108,0.9706496317650587,0.6498937294123202,0.13012218538357875,0.7169533523428465,0.205890772833876,0.8298573561202484,0.10915322142210568,0.8393301279007488,0.40666377977855644,0.5466199597525527,0.8593552611245314,0.38773516930866353,0.7833896696183378,0.19451466963391528,0.9561879257498014,0.6087597721849165,0.9818944207330035,0.8922634492060914,0.965005225333892,0.5066067595240903,0.8327549750258368,0.17690525992745973,0.6512305435695873,0.1082024039548845,0.9027511893023235,0.533695218420849,0.5850639038435554,0.06412154629054881,0.7466526212694145,0.20314184722406392,0.9621888754440339,0.8228862357775277,0.923232016753229,0.5415712949931512,0.8923224878387503,0.34396614249823415,0.7745907919875494,0.2768815471759531,0.7674355478120345,0.34121460091264383,0.5559382656827164,0.1508238604527684,0.930710024571618,0.6847441658484916,0.9832976873118145,0.9623097110832596,0.656895930782983,0.11676317548420474,0.6981807695106345,0.15448727124881206,0.8204539066632824,0.40357970505752644
17,3.3496020029371314,0.6178231596730516,0.8703445167213365,0.44910375506843986,0.8086812356664544,0.19692835053939567,0.8241730055358477,0.03271304927929637,0.9584679541968256,0.7364500353764276,0.9811849487842795,0.8918499487314607,0.8093116842117132,0.2847357063805642,0.9849200735570163,0.5527078523064826,0.7352869676066761,0.09278683819522278,0.8102326962130195,0.12115046012223615,0.8335869005538252,0.24806165763290008,0.9698774301240044,0.7305262889315032,0.6654484924209637,0.11705183423781151,0.901049169954115,0.4994695841664787,0.6905701000244928,0.07795898962209259,0.7520325512430399,0.2015489390733064,0.9788163464799728,0.8963033761911755,0.9328053832959289,0.6263405802140958,0.9205674660205961,0.3259523734813573,0.8595842039118563,0.1713427831134282,0.7789951293148043,0.3272384345697377,0.8528871470047941,0.27549317347125957,0.9492912703297078,0.5162026806823202,0.6047878585113586,0.1783191112016464,0.9688060732550925,0.8235704594265247,0.9869590618641723,0.9670532363206595,0.6866666834399274,0.09985224862779479,0.7281849225331897,0.1567270671909045,0.7929291137948594,0.09605311574757708,0.8441588709489238,0.3819104260679321,0.576060222106283,0.8216876916445031,0.35648909602682244,0.8022514081152272,0.16692758074804998,0.947939120729282,0.6476371487626487,0.9764833726789026,0.8712267354684293,0.9812619987017231,0.5386763658680762,0.7738387204871473,0.13088681168399532,0.6647088477805785,0.07929637432432521,0.8865833316563805,0.39941798020444674,0.6591009216388157,0.06010273897329686,0.737637467668909,0.14692539955003442,0.9629764431990261,0.8265783371251212,0.8834466674995686,0.4814976286468334,0.8932394036603941,0.2970116081248061,0.7464071174329543,0.24525179192140545,0.8246857000171143,0.25428637185747066,0.5877949468372913,0.14176142446246628,0.9488223092299952,0.6989568071694419,0.9827155331874093,0.955724670329609,0.6862652873295506,0.10823483369479248,0.7114347961939655,0.1292011300468626,0.823964054284437,0.37680454174944666
18,3.314913372919902,0.5727062681672505,0.8824133891559619,0.45622555876560833,0.8274024423199257,0.2638778672459102,0.8477596779285771,0.04517683517956576,0.9452098572826879,0.7214404081078414,0.9645309968044138,0.8522309497922356,0.8386097586412956,0.296520650509567,0.9848270710181539,0.5787961250893349,0.7442836059773615,0.11004686046995565,0.7699425794998529,0.11495932430986815,0.8239095106961878,0.2274059354374548,0.9733233644991808,0.6967313005828988,0.6664003944128868,0.1316827028477504,0.9333138262540794,0.705037489578478,0.6781150287289561,0.07898149987332309,0.738703828520443,0.20353988550535496,0.9811874132072211,0.9198224985265907,0.9408488891873581,0.6229178356417334,0.9548289760552101,0.37474154034641693,0.9049909093777443,0.2069307268530305,0.8320486635093354,0.2729522677431992,0.8025785562550267,0.29765907406087055,0.9402210664719394,0.46682506810415125,0.5989666702352623,0.1978208069797331,0.9701888726735756,0.7984523633605716,0.9878333140967543,0.9636958444738802,0.6172754162224747,0.052732552396504484,0.6868669202336095,0.18513945276232457,0.8375892778289226,0.11360335445502157,0.8455060813247999,0.3912838135356848,0.535216516359842,0.8454605568162409,0.3784614178307749,0.8106538044798147,0.20494095628532036,0.927215881943015,0.5991934722697151,0.9629102060938987,0.8344369115599375,0.9805398897845874,0.5702045683727764,0.7641501184592839,0.11179132121454231,0.6523236638612381,0.07929667615036237,0.9069470355610465,0.5594728452543439,0.6404412086542322,0.06676661647915072,0.7154336418698968,0.15338897916193425,0.9633001634611302,0.854351072189988,0.8912235925443371,0.4507294419993779,0.9326733197262516,0.341939812072316,0.7879460276268008,0.20004012036490287,0.7681429156601493,0.2863414692704296,0.5821116328050173,0.15424498055931535,0.9417872321730244,0.6517527474043151,0.9844407364018457,0.9518727398176963,0.6163592487400287,0.04792752934424371,0.6677792568559554,0.13911889789432877,0.8170920066758898,0.3818136287747885
19,3.282722913873278,0.6012769869071576,0.917396979150788,0.44939896949144015,0.7706415190321789,0.14172269927696954,0.8105737044292665,0.026765406211408355,0.9453350071353152,0.6395546477511107,0.9678920716881747,0.8799599574951588,0.8559822673511803,0.3219838506869535,0.979288698562584,0.5595993766233897,0.734006010371974,0.13598477526355143,0.7804506062587582,0.12714356917068872,0.8339909005579467,0.2670855066390342,0.9662011944946614,0.7115525532747142,0.6770163274065799,0.16963502623936466,0.9176077664515663,0.5039744206470584,0.6156727182987942,0.04746151880035493,0.7679588224940984,0.2195336475447159,0.9831378289326328,0.9237561863633148,0.9331634163777023,0.6092098865778531,0.9442993453568946,0.4265678044215924,0.8858771948515566,0.12114129042565952,0.8408298783517126,0.3205941225090362,0.745308576190929,0.27973817854289085,0.9340335153409729,0.47197315189210615,0.6293522401593188,0.19977377835934806,0.9680872766021735,0.8584272243298127,0.9921874921436078,0.97904688933686,0.6279782182436048,0.07863353270984871,0.7090844491779117,0.18195595371887974,0.8245433830173099,0.10685226797008837,0.8413534788725069,0.3842509354383288,0.5579488708355071,0.873736427299124,0.35901886572961345,0.7592338965794242,0.125889599161987,0.9235996880116788,0.5150111687861496,0.9595859102869091,0.8539275224189381,0.9771984383847963,0.5572300925949083,0.7870878500153466,0.14352983120954782,0.6690004414633799,0.11459848646203237,0.9019787872560785,0.41720378137184333,0.5751422041307231,0.03701140855813734,0.7329315969103525,0.1535943708093874,0.9641137363959297,0.849452341985992,0.8750458591879998,0.44627658136218096,0.9114764959022534,0.36907936749743686,0.7809799764103247,0.1940872870777521,0.7114498550895415,0.2568825149243896,0.608471186506379,0.15992670907084733,0.9458804097570976,0.7247445169408544,0.9883150735785267,0.9692367524266214,0.6449092195186122,0.07199798316823605,0.6918788977395786,0.13880988463974114,0.8141007975212029,0.37287545330982985
20,3.244832495180486,0.636356860699113,0.9360489815948675,0.5087243598540288,0.8559577873547555,0.3141554935486146,0.8615048759777939,0.048263262943417415,0.9658781240626249,0.7480656100055267,0.9763133196172928,0.8994758130322367,0.894690611176464,0.4436183388561816,0.9888333831773323,0.681814504294021,0.8843563959189874,0.17626793566634288,0.840709109507423,0.1770038601811374,0.8526624783535204,0.2865991109217469,0.9802621056013785,0.7844803243599054,0.6864965944969319,0.18483102576997076,0.9324849007526206,0.6464189849947566,0.8225551064715553,0.20962424575362143,0.828175325639512,0.2638628266283629,0.9858516551422921,0.940536213910026,0.9543140667284643,0.6997595595719512,0.9775439508576741,0.6508566336037431,0.9228195516604266,0.2162329392637613,0.8896294508909472,0.40524241037566855,0.8550682631564985,0.3724615388703886,0.959821494687694,0.6204259058620812,0.641248256035628,0.24104288887867736,0.971187166446502,0.8562725908327055,0.9911413907390807,0.9769472074452357,0.745464893685083,0.12758592800179605,0.7737982807494075,0.2502059043333485,0.8584554894124201,0.14953156803844922,0.8869026074962563,0.46001096377848943,0.5792651114258031,0.8963461272560167,0.4107754801997705,0.8406877580376992,0.23786876863222117,0.9495853690319487,0.6201005267231167,0.9713222350735576,0.8743757444096562,0.9880512497065065,0.664659778756836,0.7963612430096699,0.14813846998866703,0.6547484370772276,0.08688149476719423,0.907245582134973,0.49802075450624583,0.7215705920525542,0.12283741313489718,0.7925239439529858,0.19929336635290798,0.9640085480971993,0.8606416052427452,0.8915934406983684,0.4973007804172447,0.9568443812762983,0.5296538301609391,0.8248367166555082,0.2412658952249433,0.8214329301652231,0.35080838168908984,0.6038312199077103,0.1631792064767728,0.9411430771113652,0.705045306510523,0.9867908047394436,0.9662068486743547,0.7313248192261824,0.1079924872367844,0.7459113059594485,0.17676904758253936,0.8493079890584943,0.42309075933437235
21,3.206180603891387,0.5995627437827632,0.9034806058802684,0.5409363550880398,0.8624412666868166,0.3472689721350242,0.8459428786015857,0.05356994321887426,0.9591009914665293,0.6620825112098799,0.9719725410467537,0.8913064038208348,0.8717266113286756,0.4630997595992312,0.9872583722010473,0.6662621632276957,0.7839133877831244,0.1398193132239896,0.7851689771928704,0.21432415562165008,0.8699858922779992,0.32349849087177834,0.9700526938802893,0.7638675233449328,0.705576268587336,0.2091555986026939,0.9435054451038563,0.6559022813153194,0.7083463594057952,0.12631126889229483,0.7932993678214405,0.2574302236848772,0.9832872065044188,0.9309343903698335,0.9667056809435703,0.7411634810726614,0.9317961441046716,0.45385005275014106,0.9212764815337645,0.21721186467930778,0.8713005442528151,0.4316146428718125,0.8417114593585182,0.36776995276740077,0.9513694595645069,0.5858560772300287,0.6121947143431034,0.24274404431083454,0.9632845810291913,0.8003125497935124,0.9799273350918245,0.9584465223828055,0.6865281482871265,0.09264310736868636,0.6414738700933407,0.1677058841953191,0.8277394293644451,0.1430369337935231,0.8621559540619887,0.44457587383724945,0.5427442796452262,0.8486793711213592,0.40242975289948246,0.8449902155840759,0.2562685019729071,0.9458122366654265,0.5383434494441999,0.9669696821842302,0.8627044890219673,0.9813370409417571,0.6111425919454956,0.8184339312930285,0.14648273657845876,0.6904266529955426,0.0910720547469332,0.9205470621768592,0.5018771617206088,0.6374234742909777,0.0803223680912395,0.7531915641977964,0.18099769533766016,0.9584579282186275,0.8398654091194977,0.9153777508076174,0.5205913802039868,0.8882628398502583,0.4067117871895893,0.8118148725491797,0.2571681864712224,0.8050459841706717,0.2972548653782714,0.5782741945643695,0.15671523838712476,0.937665654442923,0.6289976591707231,0.9775178615469987,0.9473543189238145,0.6810162151903921,0.07719986388831601,0.6134297326102496,0.10882019862153411,0.828733713270117,0.39561598545565163
22,3.1746033430721434,0.6620705075650294,0.8952695305189228,0.4902837771076179,0.776582262720464,0.20526384762391395,0.8367436743674368,0.044648783731837824,0.955933776707792,0.7409350314087879,0.9719087092245539,0.8638202106304815,0.7797167208646368,0.2881289743626735,0.9736426630694147,0.5557185777062907,0.8589644180009149,0.13704551915068194,0.8171366486545686,0.195988674664886,0.8583197663171891,0.3361319634128904,0.9614819166290041,0.7095532429952404,0.6791580568101987,0.20161434490185423,0.9281230851041004,0.6728743116744303,0.706999243288274,0.12467090306079204,0.7580352568396193,0.28880696221703633,0.9871029210369697,0.9425353358033576,0.9672897842825348,0.7292692565875953,0.9663491208982743,0.46658762417917593,0.8712480438874016,0.2028533476886239,0.8261736296042212,0.401744260862499,0.8317800670741847,0.3590183500782961,0.9147757199612104,0.4675758970345879,0.6435088884393502,0.2584582484706849,0.966242252311904,0.8432814422185799,0.9881546197313592,0.9743957153284711,0.6721857643419167,0.07638254624088472,0.7676926410666309,0.233296394247531,0.8546459702673449,0.12970115666294088,0.857684469715014,0.4264494535733087,0.6101214876649027,0.8324428828213325,0.3478912303284439,0.7588962875263876,0.15178914293343643,0.9285641171882524,0.5877535717692991,0.9691724642825499,0.8368862087253394,0.9648270575615416,0.5127514038223583,0.7820915502174052,0.1469840200318589,0.6650537588470685,0.07195542378079439,0.8987578993660824,0.5282408949667915,0.6281365549776678,0.07233313938448784,0.7125059598633998,0.17660268149143515,0.9632673474008971,0.8380636992199494,0.9050422301149603,0.4939181311247723,0.9331244448610312,0.3717928891840571,0.7697866042968046,0.25648026025690135,0.7856696462389212,0.29324083287386227,0.5903911412175334,0.15837202554303584,0.9336978454592717,0.6886024223028167,0.9829263264173631,0.9638565553242268,0.6656007858512274,0.0633180308579635,0.7319903565053997,0.1615375940886848,0.8200972630507548,0.3861185079005257
23,3.135378228682488,0.6724801868276564,0.8732907652350662,0.4454129176173943,0.7301095457364217,0.13377750281212986,0.8131958293868602,0.035167658124185305,0.9230657029183461,0.6451520325478194,0.9615714720828648,0.8772885028211674,0.7617377089150884,0.3170351049355433,0.9720874539473268,0.5439838020001105,0.7785982558859241,0.11826190056311947,0.786460130627383,0.17109993939351706,0.8184285048622313,0.3235604650447604,0.9453951445186712,0.6825657865825732,0.6904731124090288,0.21869725694113415,0.9040449608748587,0.5259608308012438,0.6707539858094904,0.10495204796100324,0.7696823551646834,0.32702113970253366,0.9859579562980361,0.9397862154330923,0.9461618276789818,0.6632505079596595,0.9411827614980023,0.377318244714499,0.8150541892873665,0.1530756769004666,0.8251387313382057,0.3868612198824642,0.8538000670353613,0.35712832449502946,0.9268056472325591,0.5130184070457062,0.6468760194139517,0.24851294608390825,0.9592009264909133,0.8111790902013272,0.9869611704755543,0.9685808690771801,0.6843845016029247,0.09545718382220456,0.7372197633001512,0.22264965994120722,0.8050298765834288,0.12530592579367747,0.8397381559503456,0.4047164699713806,0.5911902809868078,0.8118592261832142,0.33045295776752837,0.7122645551943806,0.11037334247259287,0.896085604156319,0.5036592112776143,0.9544288837625394,0.8448817066178863,0.9614492359963355,0.5181269810840173,0.7357923684873069,0.13776795742705408,0.6820540863844149,0.09941110418551238,0.881983988502909,0.4077683717324377,0.587448404021489,0.046576846670779735,0.7216825352808621,0.1799988327970981,0.9590631235935975,0.8285646937363124,0.8800686549227483,0.4458487436029768,0.8911070005056427,0.3286422779244522,0.7596835324052382,0.21551234243029027,0.7984085801580687,0.2917678301426359,0.5978071089274264,0.15647612318687937,0.9314121305758167,0.6361501522615324,0.9813791285157896,0.9575181878528988,0.6785984934257205,0.08596389778825465,0.6966765684054633,0.13838111313670692,0.8059626604702641,0.3631921337047731
24,3.094222691952879,0.6429157039576656,0.9026653380833922,0.47089094391193526,0.7396032872233231,0.13421286649883535,0.8020680499422491,0.045089226971297885,0.9293951174718612,0.6857453279585092,0.9660227473836406,0.8730172841212525,0.8450848638270124,0.3226346416965169,0.982551461277576,0.6235833130460812,0.8273833635783396,0.16082190614318892,0.8136923497956526,0.2418833284461957,0.8700395496604951,0.34471372534483213,0.9709279313315632,0.7200791910648039,0.6963602141239409,0.21474940038550114,0.8882576000211567,0.5127792616248421,0.6998223880962914,0.10402520007908374,0.7923057614607087,0.34278476836974114,0.9905666768524859,0.9567620426197168,0.9366365048674921,0.6742562900356326,0.9014432563579694,0.3834497140733306,0.882765905310833,0.18199146607572692,0.8346479507329563,0.460069505194182,0.8177219923543453,0.3441105767146734,0.9458184479995634,0.5422908187525912,0.5667508588878878,0.2544294309781285,0.9656811982825594,0.8585517650503417,0.9913071105973361,0.9768400637830419,0.7208072898508116,0.1325015211198664,0.7017823446862059,0.2144481247901621,0.7878421714440814,0.18194831844057066,0.8489268475536331,0.4270950008318065,0.5673399418647984,0.8400871906237546,0.34318671738226864,0.7273247912346579,0.11009390138938047,0.9004192579134932,0.5308894569309036,0.9616409909825602,0.8452924278880677,0.9728404638807426,0.574393213864245,0.810509747582251,0.17585865477380905,0.6808812178692984,0.0800540250454588,0.866130945097836,0.3856106059281023,0.611665210846526,0.051372143750307964,0.7207542748745073,0.15961593890444853,0.962052976266293,0.8403813025455311,0.8477173527201193,0.417296153006013,0.8338051815308414,0.33012386477992944,0.759068249695499,0.264348460456046,0.7699511400651466,0.2538096500775817,0.5224665138733431,0.14979267725227516,0.9289751574560582,0.6785982861285469,0.9847637182589841,0.9555917528338541,0.7001425487544777,0.0995667133669821,0.6651963155258979,0.12397505618973279,0.8033196622526144,0.3684925501246742
25,3.0579177505353803,0.644356661946287,0.9064427596918447,0.5570125102085011,0.7600022246336183,0.17590803620532408,0.8171736781521288,0.0697647893369714,0.9525475344174328,0.7234272837725775,0.9789208152680231,0.9048570978682925,0.8020777819954373,0.29184555770521914,0.9798226486888906,0.629918637213453,0.8378556422081577,0.13908461685283,0.8402948402948403,0.2215951884749702,0.8894934176413754,0.35032100571740066,0.9652318371843399,0.7089546261933979,0.7003224481901642,0.26426815844205714,0.9119223145810679,0.610223315599846,0.7129387949649713,0.11379673959824577,0.7685530294445271,0.2891610286222552,0.9918276059431856,0.9647059591606203,0.9659586191553468,0.7399458223752309,0.9357233338476864,0.4712298686684515,0.9071478065109098,0.26551974542332685,0.8221904894174099,0.3596426994222102,0.8432299057299059,0.3863689913061514,0.9238651449878454,0.4697661664450973,0.6079656091764483,0.2639374737310721,0.9612102684384952,0.8279507880954969,0.988863038796594,0.9739728642115267,0.6888136368526749,0.12011117055075594,0.775791824075174,0.27520293461250067,0.8588334000311871,0.13890580058055127,0.8605364446542746,0.4395499598712262,0.5770291421331147,0.8421223434106825,0.3860553943665769,0.7360781071942312,0.1194689984325667,0.9312009095252755,0.545000099568803,0.9740660570654823,0.868593093936621,0.972063799715484,0.5614789970621635,0.8209284132676746,0.1512014965694465,0.6521744207573232,0.06982501414058276,0.8830392937232657,0.43585480370462854,0.6148209150923827,0.051497708867885725,0.7286499256949889,0.1648384226245686,0.9609808198530972,0.8429431995057964,0.8966116753030672,0.48068274294797103,0.8786211958036118,0.3865443374846549,0.7312843309538494,0.1744946637064632,0.7802049928877443,0.2816670494120918,0.5600333609524226,0.13773420595109356,0.9205222697940649,0.6404662278038966,0.9825026204642846,0.9572288171044643,0.675745469602179,0.09604894300020848,0.7319341776919818,0.178902178582431,0.8136792549376546,0.3765263197386457
26,3.0159519577567755,0.7042061066805794,0.8832698582581536,0.5083157308297459,0.8578111256836682,0.3860099055027101,0.8775087312652835,0.08094411358201242,0.9583881734592044,0.7477558253483879,0.9624862766054374,0.8660712920214076,0.8285543576201627,0.36223994035042906,0.9864050853604995,0.6800093349366235,0.8504104804873616,0.20936080332435253,0.8587744661181064,0.32542862162121666,0.8893766689651496,0.4129297924556021,0.9622762749985877,0.7071083541694183,0.7323417149564408,0.30358433504292315,0.9493415311629353,0.7868596362975413,0.7884445879873897,0.19611673741118793,0.7764269117233664,0.3284686298183111,0.9911835255306759,0.960762667650306,0.9635020429439362,0.7505969573121024,0.9659937636416014,0.5112898931345318,0.9001863198530421,0.2842340984113423,0.8685282244346119,0.38376770602670024,0.8781940877529112,0.4876800979431208,0.953080258743506,0.5837078395622389,0.6399757493866217,0.2637688542315273,0.9627421756574842,0.837643534778662,0.9817328552756649,0.9588157572813363,0.6710643640334324,0.10581150018982409,0.7300105152289968,0.23996786079311905,0.8520135510658831,0.18303338052712423,0.8757151313642899,0.4804386857340645,0.6059476783185511,0.8064917974119351,0.32826147298511554,0.8297309635898299,0.2486994306886493,0.9389726670280091,0.5930629285606505,0.961142170808707,0.839730699915162,0.9806565965812045,0.584442114209214,0.8115455694115065,0.134885451113321,0.6871237948761766,0.08120151185383669,0.9111867641267613,0.565814008287565,0.6501646361306013,0.0792629619495292,0.7277923510526911,0.18277344372401125,0.9593698078093378,0.8382427315059338,0.8738633366451104,0.45171049137118185,0.927185215083074,0.4309790489531133,0.7865057971396787,0.17976869783233052,0.809216543640072,0.3509706606671985,0.5776766692993635,0.13944429835938743,0.9156010945824237,0.628239590257196,0.9760959706508001,0.9456928047058573,0.6702234845299018,0.07416413014389904,0.6808741637382346,0.14070354645038932,0.824070969706771,0.390902501176677
27,2.9713022855642475,0.6996099475789421,0.8994359908614188,0.4684166224040543,0.8015624080877565,0.2688172433087864,0.8301065890902816,0.06275101227564706,0.9624843797123587,0.7361509687297213,0.9618940985646812,0.8737538296014774,0.8064220425384381,0.30550042284745044,0.968633888404589,0.5754182876611129,0.8334132697002978,0.16141025082081134,0.7970271404916521,0.23990800616105198,0.8639957933127287,0.36700086284203953,0.9468232726964578,0.6262042240247045,0.7252150928385265,0.2771746305607342,0.9356288911060784,0.6678490401349688,0.7094697316434151,0.14186698531037586,0.8094503633483583,0.31129559740695484,0.9923767742523821,0.9642066680136305,0.9520145830857549,0.697829569499453,0.9320891293201335,0.4209331607169318,0.9205724551482178,0.252933468998134,0.8755263099025304,0.44111485572922754,0.8034907079024727,0.41162705540211725,0.9044761939180324,0.4518693288566715,0.6701140865423834,0.29909232246503614,0.9577670047304633,0.8376044735027622,0.96969328978034,0.938262040056361,0.6614452823886273,0.07729528130137325,0.7329120333263728,0.22577150772620674,0.8501779513484314,0.1487164641265919,0.8597935269301136,0.4375276493030138,0.5954386226429157,0.8407871556499037,0.3341937074296596,0.7740125095742496,0.16951533591422588,0.9400304434124572,0.5610882429670708,0.9595397417656942,0.8576035702045551,0.959267946835105,0.5123861587165983,0.7832872935472114,0.13024311914669928,0.6734859942182538,0.07819170538643641,0.9061602386492446,0.4811477365732128,0.5992410229182247,0.052620368155575095,0.7506936040598096,0.18051387412529377,0.9588192410025617,0.8246146140641696,0.867270917243253,0.4281526068894195,0.8670861014562892,0.3159267760390379,0.7967572989193717,0.19428871113561622,0.7414046214231805,0.2816625599961451,0.5855659571306512,0.16328200522273426,0.912095219465659,0.6311144879615558,0.9651281715325093,0.9261419508748496,0.656264705057785,0.05986040732965507,0.6906410377136399,0.13342356441189104,0.8113769610787527,0.36579857512722
28,2.92712020157897,0.7285284837643785,0.8633264339916797,0.4594759886753808,0.7974904074586082,0.20935267903013238,0.8279167132399514,0.0590456948866424,0.9572271583375387,0.7429691121851243,0.9598477266688578,0.8618206628204075,0.7970691402300838,0.3080736482080335,0.9812712892203338,0.6156334821033246,0.87487829567413,0.23741468521363684,0.8389654542149272,0.23051424978968235,0.8798209057276013,0.3894339572112955,0.9409741592989097,0.6439818828951486,0.7442737032640884,0.32891190483458466,0.9134022660886489,0.6066295019970512,0.7519081415614328,0.2234498275384782,0.8121758439032444,0.3561977689398388,0.9946002152620902,0.9739695926154913,0.9578329519601533,0.7417814171713079,0.9714715088744362,0.6061363173751786,0.9065721900306791,0.31637499206065844,0.8790302811118454,0.48524968281435726,0.8446225394754806,0.4268870778698592,0.9294534651072897,0.5140607655177574,0.7126099275449129,0.3155977581060799,0.9671023889157361,0.8488585407173863,0.984037641875199,0.9596036296613488,0.7160855330865747,0.13915444744289768,0.7144834021513726,0.24621304030449243,0.8374114607714718,0.17895191604099284,0.8698521837516884,0.4652051508580918,0.620854140269807,0.79478491081668,0.3129669448778012,0.7677547450914457,0.14310546916350883,0.9264438430464563,0.5376588485585139,0.9568385722388871,0.8363837801812195,0.9701433168670095,0.5623648118040652,0.8028763569119248,0.1484804684134728,0.6555281183691489,0.089978685921162,0.879079016501657,0.43839314330003665,0.6090744694820135,0.07377108315159556,0.7471363769671797,0.16815837555067228,0.9585942696613312,0.8280362448271532,0.8718562411132331,0.45374555106115544,0.906367145082481,0.46129759326731795,0.7734376864532709,0.22909180471964707,0.7805853302359249,0.30542040333359444,0.6292528148051239,0.16841548485135976,0.9241728653602947,0.638578723013059,0.9784532003062345,0.9440233248844118,0.6909385573893522,0.09895441940226117,0.6579689379315068,0.12858044665607027,0.8140643387315578,0.3783702803469039
29,2.8797203258639885,0.7326277608009739,0.883857704552266,0.4732782428446676,0.8498867037676094,0.4767036701611761,0.8964085624248699,0.08030610189757004,0.9520351926522868,0.77124003558745,0.9557380008099874,0.871952682469203,0.7922014997068518,0.29254295085138593,0.9788521542152115,0.5947775855866109,0.8087993215285626,0.19406622060008727,0.9178854658475177,0.4045499672285446,0.9169368264090787,0.5069765561449663,0.9713355707304672,0.7207220629174078,0.7888889337452669,0.3870073083339626,0.9580303395126514,0.8657016501368462,0.84439893034766,0.28206681500902064,0.8385184899950447,0.473118493940956,0.9938368527738491,0.9722723481372907,0.9543482486370988,0.7396541275512156,0.9626507760004532,0.5655869788855473,0.9235771035150816,0.31498839248172217,0.8596152806504561,0.4740807073400971,0.8539398116603999,0.4802155271038518,0.9392661729749303,0.5321627997104776,0.6788846884557589,0.3050300777141447,0.9648036989347677,0.856286065084648,0.9837418909817252,0.9615468129110799,0.7273098517267713,0.20818819095619154,0.789087368866156,0.33659380987971227,0.8701120255361409,0.21108265089669434,0.887676695248533,0.5125963868700902,0.6175001863307744,0.8096632750164702,0.30748835005849906,0.8022847428496703,0.2404888519174044,0.9241679524538866,0.5881514792924869,0.9537521241035815,0.8445322367351917,0.9650123612524228,0.5220429878374733,0.81322870652556,0.1845989975850101,0.69272781646516,0.07805489415954539,0.9144073949655869,0.6205443430168015,0.6772722688148101,0.0810196979699346,0.7677514722519295,0.1801604650557654,0.9540985224812125,0.8077581360192476,0.855165678091306,0.4402952518123677,0.8967188058924913,0.39969853040416614,0.7619812647566314,0.22854140947784324,0.7850183908626451,0.3274542267262022,0.5907955751311907,0.1578361225473175,0.9108053925757938,0.6356554646324928,0.9777737742906762,0.9444807129594036,0.6927735760759626,0.13987965901501437,0.7106457781354198,0.16157390197005247,0.8228022436496204,0.39451278595961103
