epoch,train_loss,train_accuracy,train_1st degree av block_rocauc,train_1st degree av block_prauc,train_abnormal QRS_rocauc,train_abnormal QRS_prauc,train_anterior myocardial infarction_rocauc,train_anterior myocardial infarction_prauc,train_atrial fibrillation_rocauc,train_atrial fibrillation_prauc,train_complete right bundle branch block_rocauc,train_complete right bundle branch block_prauc,train_incomplete right bundle branch block_rocauc,train_incomplete right bundle branch block_prauc,train_left atrial enlargement_rocauc,train_left atrial enlargement_prauc,train_left axis deviation_rocauc,train_left axis deviation_prauc,train_left bundle branch block_rocauc,train_left bundle branch block_prauc,train_left ventricular hypertrophy_rocauc,train_left ventricular hypertrophy_prauc,train_nonspecific intraventricular conduction disorder_rocauc,train_nonspecific intraventricular conduction disorder_prauc,train_nonspecific st t abnormality_rocauc,train_nonspecific st t abnormality_prauc,train_normal ecg_rocauc,train_normal ecg_prauc,train_premature atrial contraction_rocauc,train_premature atrial contraction_prauc,train_qwave abnormal_rocauc,train_qwave abnormal_prauc,train_right axis deviation_rocauc,train_right axis deviation_prauc,train_s t changes_rocauc,train_s t changes_prauc,train_sinus arrhythmia_rocauc,train_sinus arrhythmia_prauc,train_sinus bradycardia_rocauc,train_sinus bradycardia_prauc,train_sinus tachycardia_rocauc,train_sinus tachycardia_prauc,train_t wave abnormal_rocauc,train_t wave abnormal_prauc,train_mean_rocaucs,train_mean_praucs,valid_accuracy,valid_abnormal QRS_rocauc,valid_abnormal QRS_prauc,valid_atrial fibrillation_rocauc,valid_atrial fibrillation_prauc,valid_incomplete right bundle branch block_rocauc,valid_incomplete right bundle branch block_prauc,valid_left axis deviation_rocauc,valid_left axis deviation_prauc,valid_left ventricular hypertrophy_rocauc,valid_left ventricular hypertrophy_prauc,valid_normal ecg_rocauc,valid_normal ecg_prauc,valid_t wave abnormal_rocauc,valid_t wave abnormal_prauc,valid_mean_rocaucs,valid_mean_praucs
0,5.20898776325176,0.19074879780169451,0.5139806747980358,0.04002517190684747,0.43513933031620744,0.17243270530528687,0.5115720382525297,0.019365055350895277,0.6639488886826597,0.1600035182403464,0.8859083790763633,0.5679230719819214,0.8076500539333982,0.2914208170718576,0.5775984849446935,0.02312477690865978,0.7957655501853509,0.5704522598085917,0.8911847201154383,0.14980622331538734,0.7050979348305757,0.22099091638341334,0.49794154462279483,0.034546630030335354,0.43543742444746997,0.015418185453796028,0.9062428151340122,0.761527395968403,0.5625033592196361,0.0317481084815054,0.4655239329148948,0.02555221852272012,0.4368452022266107,0.013006447648331856,0.5586791781992844,0.052530064981862384,0.5565138793688212,0.03933303136143579,0.7079135843683585,0.10476903373610633,0.673859180122203,0.1743844337451685,0.675995144174742,0.23965743294570996,0.6316810142825752,0.17657226186421818,0.25274725274725274,0.4399113492309875,0.16016193131479278,0.6591077247021517,0.16861402943576137,0.8385191364681466,0.3350685987140305,0.7906433451602498,0.5579769638063375,0.7099506878644315,0.2181154220141464,0.891205353263231,0.7362074802009708,0.6657925957472697,0.2256408840732032,0.713590027490924,0.3431121870798918
1,4.686439493868826,0.3807342950919777,0.45374040201088817,0.03807643111369261,0.5782799950134458,0.26383907308867516,0.48558373277635636,0.018960548020286398,0.8222292022858121,0.36086712132269816,0.875379682244458,0.590520633183211,0.7844260915608011,0.3497730552167555,0.5254670256403744,0.021838639914613586,0.8404806445790053,0.6111418695872437,0.9044950883767713,0.25736217076545087,0.7129785607380963,0.3301976311684261,0.4125820537338376,0.029795962192563943,0.49942658440554893,0.02091394811297407,0.9223099651196248,0.78485656996708,0.6511417596936141,0.041764984600455995,0.5668946310147358,0.04127374747133371,0.4567503460434702,0.014587451382801347,0.6047470777073707,0.07169046585736526,0.5902783560996407,0.050279533936363995,0.8213862757987905,0.32075825392458746,0.8034962645371686,0.20258567064773683,0.7705803654050157,0.3555585199520267,0.670602576418325,0.22745915625839727,0.4913003663003663,0.5718418677516381,0.24807755580942095,0.8151090063959852,0.3688661230845027,0.7934797647872709,0.4343661482315734,0.8253086238747324,0.5795762347431195,0.7006052979227404,0.32259396437751686,0.9044292732301055,0.7385058655242599,0.7469733381636768,0.3083159650119137,0.7653924531608786,0.42861455096890105
2,4.452529425512206,0.45439279444317227,0.5631862405895937,0.10523606245509581,0.5711422944490705,0.26023208384293484,0.4750204201967318,0.016925595348869525,0.883278305843384,0.5146523873269236,0.8870330000650836,0.557205687797803,0.8415979540739398,0.41542470423848366,0.426165182936896,0.0162584491887255,0.7207243888053918,0.5086155155438025,0.9344920870545673,0.4573766079032066,0.7435900643132264,0.37077225700349214,0.445903554911675,0.036893808158789454,0.48358968383438206,0.019232735943660886,0.9295552295998933,0.7955438091782552,0.6635427486478751,0.05642766311177964,0.5807320558036865,0.050359173596265544,0.46761473130917797,0.019595163924810362,0.5982606590458661,0.06751182260974257,0.5973178677611007,0.05367650395227764,0.8196216938916054,0.3227751251250022,0.8709371644714361,0.4173074555406248,0.7784801056880231,0.37831420011512173,0.6800850206329813,0.25906365770979367,0.48054029304029305,0.5577790433035981,0.22192311361413097,0.8528665415489353,0.5146470973199827,0.8498545180784178,0.4575579892209529,0.7104891065302172,0.4668540220943105,0.7189658117711372,0.32782348021169333,0.9038940491465551,0.729289875023707,0.7558972132421466,0.31722533547255205,0.7642494690887155,0.43361727327961846
3,4.310033446913884,0.5223265399587818,0.6810918155518687,0.1360526628303938,0.6021684126121594,0.32409927383577125,0.4807167115187,0.017716809421783983,0.903147364212976,0.604801237415552,0.9176480366561526,0.6940652284049026,0.8753763281591389,0.4151345192548009,0.5522122601374091,0.025636188617369715,0.8105270329796206,0.5990323012685463,0.952371810644509,0.6343035176809725,0.7578216243235065,0.39673373426408,0.5225427188934614,0.044916775344222004,0.5762632519308059,0.02362604037895536,0.9384574592769865,0.8198165113432937,0.6943122630578336,0.08272260470459546,0.6202663106056411,0.061693242406243035,0.5214267282783145,0.022587727311997523,0.6356059565615039,0.07345268281577724,0.6201699447729313,0.07654073155595183,0.8861037348173095,0.4762550217567011,0.8520408937433955,0.2810665398234404,0.795721019788496,0.4084951998139479,0.7236186513582248,0.29613088334520465,0.521978021978022,0.5822632672907033,0.2868483257769719,0.8840366697599321,0.5872857419815695,0.8738417400858647,0.46917367793913106,0.7988144737999591,0.5659917447066336,0.7279792274052478,0.3494557203234807,0.9131855801328091,0.7496499369450885,0.7723392781586436,0.3161768607326241,0.7932086052333085,0.4749402869150714
4,4.178149049149771,0.5333180673231052,0.639907792608402,0.16304753435305464,0.645183197223862,0.43153904063878934,0.5286582417480685,0.02473211445005541,0.9306893665473314,0.6444530275845949,0.9386821562261178,0.7493029735939162,0.8919382118125952,0.47701489878238823,0.5254482938165933,0.023165109385940654,0.8990438365076745,0.7469466766864783,0.941392198905644,0.6216456418036744,0.6863346212296279,0.35507928997180627,0.46523783481744796,0.03428735598904184,0.5489375968469297,0.023638978923283135,0.9316731491293944,0.7943950570511039,0.7341882312943027,0.14601906208121246,0.6507519672785391,0.07037826618434434,0.6869227636940737,0.03924797734773439,0.6764956648050742,0.08512780833700065,0.6478709392018234,0.08659444720894079,0.8946567138497914,0.4013553645407336,0.9038196465497725,0.6386280638499554,0.8134374116816752,0.4691566169578836,0.7419652302749876,0.3345597764629491,0.5302197802197802,0.6056523088878976,0.3743047408445322,0.9149795886095702,0.6375991395050232,0.8870612651840396,0.544437836112059,0.8726356918746151,0.6802849427193765,0.6456723760932945,0.2565016816503459,0.8995442671724118,0.7105921463585549,0.7738724512794419,0.347531645196975,0.7999168498716102,0.5073217331981238
5,4.055755099452422,0.453095183573773,0.7489881364269217,0.23466018188678123,0.6366047387032613,0.3235204431487521,0.5411740242279315,0.025334809074278694,0.9232169308581075,0.6026540529811384,0.9193576551388193,0.7565981580642991,0.8762039056441104,0.4866258237125319,0.5444610949544721,0.025367146555801957,0.8207228282605974,0.6246149872756148,0.9335932676647642,0.5595612542910516,0.8246805575652689,0.46975961325705673,0.4979391668690587,0.03645101916685882,0.5029157995587119,0.020338669688756784,0.931408437260943,0.8121500088525595,0.7101952784683708,0.10018022047510138,0.6042168312350938,0.044303945048058437,0.4947772792630467,0.031880610080736685,0.6388233939796144,0.06622407192192571,0.6311005838737529,0.07754203462652243,0.8466158762357836,0.3829793609935229,0.9035434851088288,0.551955053754585,0.7545571501127517,0.3235417968065734,0.727861734352867,0.312202060079167,0.4251373626373626,0.604834262946569,0.2750516452506655,0.8987936264861198,0.5639819453429494,0.8673825462388346,0.5027448565311207,0.7906251649415007,0.561580184300982,0.7777360832725948,0.3840296399595592,0.8976684268910484,0.7244255715304646,0.7205720085286903,0.24934103462835505,0.793944588472194,0.4658792682205853
6,3.971125852514811,0.4614151591481566,0.721997215436818,0.26019913026479147,0.727675418764125,0.5285365587559628,0.5676334006766617,0.02867707545355392,0.9506170515021611,0.6784433401884159,0.9560912203576107,0.8138221803293334,0.9248255284095159,0.585935327823141,0.5239633999212628,0.0268728236243716,0.7704017099709803,0.6527712993734192,0.9403187530362475,0.7535421064009734,0.7686723965693534,0.3920117190240878,0.587356973866788,0.09035513793467095,0.547822792435139,0.026034568377924092,0.9596795076042026,0.888021757174181,0.7393512737535889,0.2190005734460186,0.6983339952987724,0.1043881775436944,0.4911166017337971,0.019537823972147303,0.6630185835121912,0.08580378585996461,0.6937727013574371,0.17806929238731223,0.8587984583397308,0.33079524882791866,0.9354630438331937,0.7327436702082014,0.8321817820958375,0.5085533832471064,0.7551948480226388,0.37638642762938995,0.5107600732600732,0.671377438050341,0.43016344625163333,0.9106576171314195,0.606229897411634,0.9066240055344172,0.5559713228845117,0.7470512858106325,0.5757556204701035,0.7045422968294461,0.26568652424047656,0.9181641353856222,0.764224370573509,0.7851876228902968,0.3517625257431994,0.8062292002331678,0.5071133867964382
7,3.8322574307232284,0.5055339287077323,0.8386962575137351,0.35464188795883633,0.6274306519311388,0.39469679785336176,0.5843583785473638,0.03283806452386863,0.9548581540032053,0.7227405425196928,0.9731431634383192,0.8607280651661481,0.9543832204143817,0.6599684443325451,0.6390209288444688,0.05226802454307114,0.8659744765659263,0.7536130961175536,0.965163256605838,0.8394421821331464,0.806958815394572,0.4798213200139989,0.6378898454629911,0.1069517466229331,0.5331604909500505,0.04169243639961679,0.9594661548071052,0.873060076185435,0.8607823763150955,0.3348687283219572,0.6857932510077469,0.09824312675908001,0.5185513606071273,0.018085274842639245,0.6576967879759367,0.09282588771694714,0.700680889469702,0.16231064153475763,0.9232689355785074,0.5586806284032377,0.9198728200695926,0.6649742327090714,0.8422706397624024,0.5198385364460137,0.7833057550126289,0.4105852257668529,0.48443223443223443,0.5809890152815669,0.30267524577901617,0.9148780518253732,0.6466328789757031,0.9267890206930229,0.5746436327740829,0.8149020614022225,0.6600710177177054,0.7120051703717201,0.26763632793738645,0.9074532637422744,0.7198515982922782,0.7808425261958557,0.33444657229529906,0.8054084442160051,0.5008510391102102
8,3.7190488350954634,0.4827112434165331,0.7521970536987169,0.3167342524539788,0.6974700187777644,0.49363153479474864,0.607039573522322,0.049555993571964524,0.9370457555066157,0.646681277325133,0.9664807758500957,0.8252397023514956,0.915807554218812,0.5955151734117498,0.5522646457462885,0.031406728247187946,0.8366855605203403,0.6987645022883294,0.951107514932254,0.7213911574391155,0.7914827029072573,0.46909550517063237,0.6758289443962289,0.1650889852866355,0.6470161946464857,0.03646027780687731,0.9725742278242928,0.9203672388361529,0.7467445255656926,0.2067442507555343,0.7253820463515839,0.1076509530424539,0.5373939496089113,0.03879798830286684,0.6958265206932167,0.11416042001113821,0.7046659719686503,0.23849921412184596,0.9027097605964447,0.5853773063117947,0.9397499191241495,0.6177211498521474,0.8500289198185205,0.5518622210253182,0.7812143874416497,0.40146408725748095,0.49175824175824173,0.6407061634077091,0.3862486978120833,0.8936119214171871,0.5751071658693848,0.8809205037947382,0.5328535121881276,0.7882501539454007,0.5836685202063319,0.7033826644497085,0.23928172301569972,0.9127278025140707,0.7532696593441703,0.7893734288708889,0.38110238773671923,0.8012818054856717,0.4930759523103595
9,3.5817646287650646,0.5692695214105793,0.7174845556787581,0.29795181324832315,0.6739575908341229,0.45945219239789853,0.6152628419359272,0.04336016639475096,0.8641451583542439,0.634024499281211,0.9594536769210228,0.8133547939185233,0.9215405612616477,0.6384661114680245,0.5330178555554145,0.024825691739630583,0.8252109229126265,0.7130455188211069,0.9378908816586766,0.6636738053776363,0.7852756282843815,0.41680248040488693,0.6116543051778984,0.12195332435387299,0.6292157800700774,0.05571482496720745,0.9715600160014597,0.9208461181750686,0.7894384884699084,0.3543477088756322,0.738730754468744,0.16651722905046976,0.5325638838009892,0.0384971639968828,0.6903247812353076,0.11082302358318524,0.7467807935928343,0.3030712979198952,0.8972156509060734,0.44058999520065223,0.9493081397219084,0.7775650621152396,0.8449100032873583,0.5609248276295065,0.77309248905378,0.4074194118533145,0.4626831501831502,0.6015246616488796,0.3292529772031832,0.806502515532215,0.581575547982568,0.8865007019757056,0.5250660304178852,0.7555241474357095,0.5718405398379766,0.6606681623542275,0.18624877255356245,0.902652733118971,0.7131568982206625,0.7553305697131937,0.3356934834711583,0.7669576416827003,0.46326203566957086
10,3.461880904792347,0.5859858026104877,0.7592578388788381,0.28242552835326296,0.5699652418066095,0.3594256780584128,0.5843174313350856,0.04576938280262963,0.9275382545161209,0.694152912407858,0.9351700744972291,0.6453659519243998,0.9187121334398879,0.5232955209889482,0.5672739164116176,0.045591419020690666,0.816661840239468,0.626345564776315,0.9314044655708685,0.654824987708825,0.7552166758933505,0.41510074696985966,0.5783385785448487,0.09409368282206468,0.5736598838041269,0.02983166102636758,0.9784248949026929,0.9370889706040221,0.7912293431428797,0.24836566802951388,0.6672761999873972,0.11398635070050235,0.6397284752012122,0.034592224819946504,0.6864697709248717,0.15242539990859028,0.7130078644655558,0.3317529470367103,0.8836954566466707,0.3298707627471143,0.9422799827869485,0.716440656027526,0.809484915758277,0.494432743348473,0.7632911066073598,0.37024660762295397,0.4791666666666667,0.5193843376788383,0.24051905875895008,0.8735226189832174,0.6056597014019744,0.8847834048873786,0.4733917495706624,0.772800633375363,0.5087715540874619,0.6177785623177843,0.1721600227625314,0.9126886958833242,0.7664102275870488,0.7200869461813093,0.2745430448187657,0.7572921713296022,0.43449362271248493
11,3.32448033363471,0.6410960995343867,0.8524321575362451,0.40283821891817956,0.695567070673111,0.4725915790051519,0.714083775859945,0.06229449044899441,0.9418780317172503,0.72981653370041,0.9491141921817831,0.7816396431585941,0.9505440334702008,0.666251729303661,0.6551182327317984,0.08230644620339328,0.808005723499134,0.6308221390854744,0.9541667455302381,0.7333653414819156,0.8646569653304652,0.6022398980546766,0.7683846220475516,0.24521729134161743,0.771367311699586,0.08305615596161874,0.976675570402914,0.9329750016747049,0.843444428195196,0.2967561197860917,0.7935605879780712,0.1637498895275725,0.6419829782410252,0.14119812256105452,0.7523167988761609,0.16370110688119416,0.7798695234699027,0.38761366778777745,0.9281439442743243,0.5778246756239462,0.9135978858779537,0.58775581494185,0.9022349568955267,0.5740083720304755,0.8312926445946849,0.4437153446418264,0.49313186813186816,0.6072643466425989,0.32163514701634077,0.8952589812198564,0.6406956725949172,0.8932284778318107,0.5669097952898883,0.740291616573322,0.49352810626661525,0.7189789085276969,0.2611609246321403,0.8978799349756414,0.7053823278825142,0.7947406409791955,0.3305500366649578,0.7925204152500174,0.47426600147819625
12,3.2183745590732915,0.6576597206320128,0.8059226991921432,0.28450523783426473,0.5534218924494101,0.36985655915336435,0.6589634871927803,0.06795831418528353,0.9635393503067857,0.6793054216512155,0.9465871288138482,0.7436472853119477,0.9140136290090822,0.6280223493314268,0.6153343789289206,0.07888522936518937,0.8209671098292121,0.6633240509015423,0.9670647699752413,0.6425138782154507,0.8089715283012031,0.4961987414689364,0.5678721311976576,0.12963511157862004,0.5162236068692667,0.05628068009634217,0.9874138412627118,0.968273033496847,0.8458068189346244,0.37214186522051923,0.6241581422703759,0.1812827857843947,0.5868859965753628,0.10226364789481862,0.6451444881188558,0.16346995721879293,0.7808478661168873,0.4495809073835482,0.8911775638458193,0.460367844878176,0.910394564900063,0.6774621839687306,0.8104662338331816,0.5760303937693166,0.7724370108534967,0.41861930850993945,0.4990842490842491,0.4860969196324859,0.2189778073068274,0.9244058641654217,0.5822262543003673,0.8590320874112357,0.48431376031476336,0.7732632026507932,0.5263460617231823,0.6497443285349853,0.1943902301252684,0.9063434533455338,0.7466707965053414,0.6840399554207238,0.2648907638318796,0.7547036873087399,0.43111652487251856
13,3.0924915111608136,0.6364399664147775,0.8177316648186282,0.3679667202889084,0.6378194076859827,0.408526924701381,0.6343278639726486,0.06962066112373,0.9118452918479598,0.6516338907583861,0.8999222351718443,0.6410613310238893,0.8930441909399764,0.5462458204007123,0.6262774151353135,0.09385487500618686,0.8373931308357537,0.7035906849185609,0.9616425614527481,0.7860551374888798,0.8284840150400947,0.5789396988066724,0.7349033018507416,0.24087463022227387,0.6271909381937717,0.04647502736725974,0.9904129780260656,0.9729251976360603,0.8110924869724775,0.33806589435057466,0.7112855241525092,0.2031184705397921,0.6155721798948744,0.07361379926566022,0.7710710656522975,0.23817731169529777,0.7870330629278247,0.5021363634074419,0.8929545977510662,0.5406402204527925,0.8749577412300533,0.5462532297397964,0.8638016891202206,0.6284375280917917,0.7966077782225168,0.4370577817755261,0.5137362637362637,0.5445406381128405,0.22644101859632454,0.8644284186478131,0.6034114396338636,0.8249384499562538,0.45980931080861415,0.7727009354015776,0.5485468697762816,0.6419249954446065,0.2221996661674853,0.8975528961910653,0.7263970411580456,0.7541021507011834,0.3095274635788075,0.7571697834936201,0.4423332585313461
14,2.940472995577018,0.7600183192122739,0.7410701393115293,0.3236598471144748,0.6390437630935053,0.45804289479248006,0.6658956722001187,0.09861222316198477,0.9309228913168405,0.7298965364458277,0.8842035412183782,0.6530446013752674,0.8679706968431248,0.5915813007701068,0.6175914049502813,0.09900018452226039,0.8305275381456675,0.7252163148722542,0.91109236411356,0.5519316903062794,0.8317201634358875,0.5888726819361981,0.7064296159418197,0.23852469821396755,0.6334933990768111,0.058594058638598866,0.9938530672973674,0.98184143548104,0.8214557576712077,0.419267728075669,0.715794726108617,0.21113383613225561,0.52928019975061,0.0481290233889327,0.728501463109491,0.26166618662760965,0.7713945279719161,0.5093598684157314,0.9493734689702382,0.6312403626936086,0.9215845657922768,0.6236770002610168,0.8513557243916546,0.6331488718671578,0.7877406995576621,0.4493543497663201,0.5682234432234432,0.5394440412579692,0.2836032963326504,0.8779444627081192,0.6361881565533366,0.823014629580646,0.45423976365700236,0.7745553177139841,0.5610189922000712,0.6649564959912536,0.2238894702061419,0.9072041826202977,0.7311385455009989,0.7371116943166954,0.3178802504637283,0.7606044034555665,0.45827978213056136
15,2.9425428067079147,0.7344477520799939,0.8074500404345253,0.349368629612603,0.6640768728572044,0.44699012280274697,0.686905508788696,0.119856579392361,0.8828100962653884,0.5391820751242095,0.9124582911464173,0.6881467412669531,0.9083759649944689,0.6366680016075201,0.575947068310834,0.09717590571038755,0.7805742901371316,0.6306671027916779,0.8839603663235426,0.43195397238084315,0.7897562691657661,0.49033817954895625,0.749890368568813,0.32387390288991386,0.6044529485758987,0.0686532068068711,0.9948601486451396,0.9852003662068669,0.8428588302790996,0.3625667335548773,0.6981473401401203,0.2512893035886444,0.5358848570184179,0.11355246996081818,0.761300043874906,0.30078255151508543,0.7850023524353935,0.4459772481636,0.8976200835704016,0.559454269226692,0.8170272647210738,0.46814016491286675,0.853143580047776,0.6373707370566281,0.7825001231571911,0.42605753638672006,0.5151098901098901,0.5599237669175561,0.2698991946562501,0.8475666543213471,0.4845461023725457,0.8574938449956254,0.4801889552212935,0.715843474181157,0.48015952885407276,0.6083346619897959,0.15922008639242097,0.8994430500104795,0.7257199494364162,0.7067156522484603,0.2722890397900857,0.7421887292377746,0.41028897953186927
16,2.777290779464564,0.6376612472330356,0.7471030538487832,0.3061620450816556,0.6390557082361976,0.37010828791998407,0.6306297966098557,0.08694236593969917,0.8933294189453997,0.6039312332042511,0.9478022881243915,0.7153708638523563,0.9255614535641316,0.6234718852048705,0.6182060627611344,0.09593347655490178,0.8156117544738567,0.7018700250780083,0.9509664618016406,0.7020714281019811,0.8409973901322716,0.5474293248268818,0.7888294827876106,0.2861664291073147,0.6020795599657109,0.0631666411371479,0.9968717847944023,0.9922578875562267,0.7941613950354798,0.32621956122622103,0.696222070946146,0.27215206831917993,0.5855592480117416,0.05599107770476795,0.7346506331118869,0.30855887535257553,0.7607605235005093,0.4011246962898668,0.8808790410850076,0.509683815652855,0.8268594465724722,0.4643779503975299,0.8282028472650881,0.6195062639110661,0.7859209248368437,0.4310712477342544,0.4526098901098901,0.5208997477400428,0.1961477602220866,0.8531270416592108,0.5130541247546523,0.8630964250106821,0.42568948517311833,0.7509817318124505,0.5414311614380383,0.6617603179664723,0.1947001625121101,0.8919805847080294,0.7152036139237569,0.6978587013935172,0.275699227501066,0.748529221470058,0.4088465050749755
17,2.694303781337824,0.696435386611709,0.7806354473225674,0.32793778989909533,0.7396191063208918,0.5167099769922977,0.6124973028249304,0.14018134913750047,0.9119920367785898,0.6494713626512878,0.8984588607955899,0.6544292319821796,0.881873801753426,0.6079449189372577,0.5922040689331115,0.09629295882055053,0.737717724152954,0.6350757904657516,0.9239610963748897,0.6453312763097403,0.834376554528262,0.6268471344507125,0.7694856069471171,0.32551388589102676,0.5947074387981919,0.0628045251962766,0.9959304497954199,0.9877904785306528,0.8408173621969983,0.46427404185070525,0.7371709188398546,0.3017976887958578,0.5127532680226002,0.06393894712588911,0.7148507868912607,0.334689800375249,0.8329164077564172,0.5160182831378202,0.9373417515700839,0.6538203656719572,0.8819816495274604,0.5077280884301246,0.8481568278719684,0.6659333859535996,0.7894975460953612,0.46593006098121575,0.4876373626373626,0.6126051854120965,0.2555608232342298,0.871165633959893,0.56123218756163,0.8232181007996419,0.42840309371733043,0.6640536023223763,0.45855489701526136,0.6227513438411079,0.2213886575761319,0.8944228321379826,0.7056778333806256,0.7082684601621115,0.3041890478219734,0.7423550226621727,0.4192866486153118
18,2.589943022357081,0.7850545759865659,0.6946871534927926,0.29877257932453805,0.7738703912924688,0.6111644102711618,0.7412317776003794,0.18980169228481317,0.9233277591973245,0.657578927883925,0.8951619071773782,0.7081598613925033,0.8654640978753391,0.6327862525567565,0.6834890085467915,0.13699798878605476,0.7896107454288104,0.706559276423377,0.9126806764421443,0.6038245040157566,0.8483643993020835,0.6431805512096809,0.8085946456382654,0.4328285299598509,0.543299861944148,0.09223131186359804,0.9977688631243552,0.9904049357750045,0.865876828196696,0.41598577299177164,0.7194830750076858,0.34697535058071605,0.5688790578071583,0.10738690049289351,0.7590646959382129,0.3907688756750115,0.8422555940628943,0.5807685974544856,0.9174689801175552,0.5931112211367878,0.8814820552723467,0.5777436392809228,0.8557772996507287,0.6767182217391706,0.8041828034816931,0.4949404476713705,0.5267857142857143,0.6157474357682826,0.3402743717293327,0.8982318450981452,0.6189372492694456,0.8073860052495574,0.47428431484299055,0.697915725889218,0.5162483420437637,0.616149439686589,0.21003490582527487,0.8898583470930738,0.7052018945073395,0.7095886925716879,0.2807420547231346,0.7478396416223649,0.4493890189916117
19,2.534034372340558,0.8049003892832608,0.7761062802737876,0.39367926288994654,0.7244482321406,0.5684957913507814,0.7102582380450163,0.21226885648824026,0.8522627006421262,0.6273581501729716,0.9437389248861541,0.7852473054984158,0.9364738629698013,0.7351548031362881,0.6685406956808859,0.1545666074490558,0.756856036364233,0.6902575607812599,0.9332377056198632,0.5697157597728986,0.8702493676302013,0.6971371485653887,0.8251394807325519,0.43968330128927907,0.680250960462603,0.13255695388390043,0.9990632829661653,0.9963724735702502,0.8475058028566179,0.44409333800717643,0.7487604856280301,0.34660018968342143,0.6163149801025004,0.1289351329282309,0.8199046213675806,0.5018775738025462,0.8361596367640455,0.5651029383866191,0.9163015795719723,0.5916450515875313,0.9094641891444883,0.6292707066684745,0.9078729029811619,0.7657530739627596,0.8228052365157327,0.522655808565497,0.5215201465201466,0.5623501499785157,0.3107632822488362,0.8022845776444297,0.5625153672927348,0.8563421978961077,0.5167972542598795,0.6872157874673783,0.5212153669276957,0.6514098943148687,0.23422623517328325,0.891304525634013,0.69140494560768,0.7459490103787856,0.30380709332200423,0.7424080204734426,0.4486756492617305
20,2.499769364292499,0.8155102663918785,0.6902722035565709,0.30332463871438403,0.6875953385275158,0.4950197899760268,0.7113591839612261,0.19441362117026886,0.8359580851147368,0.5648131219417959,0.8850762148993117,0.6441456797053744,0.9002408057334745,0.6495844044400673,0.7104741056347866,0.1894570136756858,0.8061269080073323,0.7079446872173036,0.9096351906380379,0.5615514272854085,0.8483584601492444,0.6737559277610243,0.7629836393559004,0.3875088363240419,0.6433290267539431,0.13460370934081298,0.9986591197793482,0.9957646245003628,0.8440022148975611,0.43241637648458453,0.7166424317300404,0.34181485469902867,0.5793975860484819,0.1307197824091258,0.8161605514136708,0.4881780283776915,0.790094965788258,0.5278904210754286,0.877436526711697,0.5503077516103883,0.892294913713206,0.5518663814069856,0.8852400513953042,0.7390923122754108,0.7995875011337927,0.4887701614472001,0.5602106227106227,0.5405891822213268,0.27095472644925883,0.803563774671566,0.5156858879530586,0.84740777666999,0.49226598599889987,0.7531431252382488,0.5339642758256197,0.6413179892492712,0.23686786225714382,0.8982405850147481,0.7046498564338208,0.7307533399888828,0.28929215492629873,0.7450022532934335,0.4348115356920143
21,2.4267843801204907,0.8132966949087855,0.654002184298065,0.3013504106380247,0.6822876338236055,0.4619500417286866,0.6332646607042778,0.1801173872996623,0.7558293743285159,0.48076584201232575,0.8430382530490321,0.6100465935088781,0.8588034954353448,0.6200797817435834,0.6410747622010846,0.1471218120819356,0.7334950186444883,0.6086522887738268,0.7839645122941549,0.3570960081454779,0.8085566574783773,0.6201217237189791,0.8008463954102559,0.4045106603115247,0.6124501029626813,0.12096139236843262,0.9995182016605024,0.9987934958291895,0.8265433348707623,0.4358529040001127,0.7313652750752826,0.3783736861675346,0.508990418175635,0.11412703841553479,0.7657284687991942,0.4244264070012651,0.7868428395211994,0.5437719599653956,0.8954353239104296,0.5713619004260687,0.8701587533769082,0.4997141694378762,0.854579369660231,0.6920956337966124,0.7641321445561918,0.45577576844623463,0.543040293040293,0.5488165163454995,0.23737663486458382,0.7177909923556118,0.4268981949597802,0.801298146377195,0.43717570610083695,0.662335131806586,0.4263246803708419,0.5920758928571429,0.21339643481721965,0.898087736876275,0.7146085828541379,0.69248540526489,0.27683881447034386,0.7018414031261714,0.3903741497768206
22,2.4199617011393677,0.8082589115334707,0.7771987627868975,0.4213875905191733,0.7687177562591462,0.6083932148459901,0.6782578136182595,0.19013402547594752,0.7979112159707027,0.46862948641962665,0.8721151865517169,0.6510985976959511,0.8817369383742033,0.6099948579033454,0.6644895419275365,0.1592676346254471,0.6999125290510697,0.6184293172073811,0.8291594224843198,0.44783826688022155,0.8054114261141792,0.600947113167593,0.7539177738790164,0.32252922747800467,0.6276393130733304,0.12420604110381893,0.9992809028192046,0.9973090095175317,0.8195195972186285,0.39256847940594597,0.7184261580735278,0.3138805018584476,0.5054087936805303,0.11926463783530912,0.8020706248982907,0.40979713804499984,0.8156140852869934,0.5539972672211003,0.8851903138685621,0.5442772505472371,0.8524737995626332,0.5409801406308827,0.8482220498797151,0.683768484591146,0.7810797145418314,0.4656522991892905,0.530448717948718,0.5960394981116481,0.33849517684583574,0.7795944354513186,0.4120716391349101,0.8309815451604372,0.46111435457325006,0.6339841069700612,0.45330233344052506,0.5845515215014577,0.1993385343793737,0.8954733435913689,0.6983671713749207,0.6971960962713252,0.2709419608933042,0.7168315067225166,0.40480445294887424
23,2.386540907265148,0.8202427295626288,0.6821039292354123,0.28697094798743755,0.6719846007564099,0.45321861859706464,0.6438504052349765,0.17773919153875273,0.8706370934063385,0.56667461998596,0.7996707743135862,0.5148373252831149,0.8324846368550137,0.5670703784256482,0.6773954510242179,0.145780077209021,0.7733020387793772,0.6748825359534523,0.8916971080052384,0.5345146839332058,0.8309430042898681,0.5941278792433923,0.7838985310577098,0.33410311405545534,0.5663339288951035,0.10577404563900002,0.999722122018149,0.9992950143924355,0.8219951077262676,0.41885474502659426,0.671723700717787,0.32759977583009187,0.5244382014092321,0.13812106999531928,0.7180296290949773,0.3768556467235539,0.8023788780484681,0.5415845631448014,0.859526231317372,0.5187665589301512,0.8454267513642677,0.484200393651844,0.7970016769993699,0.6141326180970198,0.7649782762166258,0.44643351445920554,0.5288461538461539,0.5358795073221176,0.23114232900535164,0.8479836209515328,0.5072840098090736,0.7733116975603801,0.37636905420976224,0.714199923760373,0.4928803080280797,0.6598823569606413,0.21003579613313147,0.9028174666060045,0.7374076861284226,0.6191359031866439,0.21570396295466326,0.7218872109068133,0.39583187803835485
24,2.3811220108266187,0.8289443553927182,0.730334897913245,0.3307646375738731,0.797735700469683,0.6267769540951506,0.7044337641454815,0.20420030147424303,0.8180597545000587,0.584612892194753,0.8854089296030371,0.6762623646786249,0.8941328237873843,0.651028302823722,0.686106701548074,0.1478103843569419,0.7476890744811029,0.6335908948669489,0.9025974055236946,0.5132756540967253,0.8102455365766627,0.6306460664880019,0.801111514951825,0.3743046316762362,0.6067237833572512,0.13873802744407726,0.9997398920603283,0.9993386808851392,0.8469664528015579,0.4898111486747751,0.7268724233472665,0.4164986287964937,0.5947032975556205,0.1278927570632524,0.7731634776326531,0.42973089321632535,0.8245109888271775,0.5566061213461344,0.9136983916134868,0.6111599685422371,0.8566587075523175,0.5319016127206136,0.8555946719927583,0.7015602647411199,0.7988803900114603,0.4941195803693043,0.530448717948718,0.6207765988285434,0.3274380552023075,0.7979351412984226,0.5026359202044162,0.8207520296254094,0.47068841642731446,0.6799957481746474,0.4575294448602891,0.592226220845481,0.22660104030538525,0.8991391429257894,0.7287220526850874,0.6705149017015899,0.238924317545595,0.7259056833428404,0.42179132103291356
25,2.369603714308896,0.8336004885123273,0.7469390647535995,0.3744619087595189,0.7103643442268691,0.5379274169995982,0.7550185259430855,0.2548706583794909,0.7754890902795872,0.5152216383803421,0.8447586069695804,0.6221519722366945,0.8671586202891932,0.6557704560375951,0.6830083308992546,0.19025928321989055,0.7499883039580886,0.6953542658636943,0.8104892605841674,0.4198925446138376,0.8007031177072903,0.6445631087547768,0.8381296589112266,0.5072066401785613,0.6246240260793364,0.1494876052914905,0.9996123856913263,0.997941939012966,0.856030096108055,0.46672043504973815,0.71565712163424,0.33393079511729185,0.5120030099815642,0.11195670690703197,0.7650182166070362,0.43151639374420603,0.8488117176194919,0.6124540776225351,0.9321506061961965,0.6478644254486257,0.8463032604651529,0.5539368699415022,0.840030908169224,0.6941923941776029,0.7867756320511222,0.496080073130333,0.5432692307692307,0.5366936470375389,0.28317064139530934,0.7497376272850979,0.4712894807801936,0.8177325167355077,0.4718592119143993,0.6924859982992698,0.519320375111632,0.5880625911078717,0.22291814677718447,0.9013578691231425,0.714357934822466,0.6710917774465366,0.2660241871431425,0.7081660038621378,0.4212771397063325
26,2.3281139689960075,0.7803221128158155,0.7683525223640442,0.3162830018675681,0.6616163472101142,0.4396331743484364,0.6387193634738049,0.17250059072471635,0.762188931086546,0.4528093494869142,0.8510470574500248,0.6066322328019189,0.8576923493309503,0.6065871458918749,0.6531848862756056,0.14088637072596027,0.7288538940740805,0.6212493215387307,0.8675224941438165,0.4228488891336984,0.7630792743723035,0.4914820292848423,0.7712132148759069,0.2806197575655617,0.5920752806431522,0.08246290158108545,0.9998441542035414,0.9996311188693303,0.798935549230848,0.39965960970815834,0.697185660300978,0.3341112716806064,0.5436756826900704,0.13473867861580202,0.7459700581334152,0.3768564763394307,0.8017939722135028,0.5294792377443,0.900271432975937,0.5577910216563255,0.826674858444501,0.46587987681378457,0.7925389041278137,0.6089874999204161,0.7629731375057599,0.430529978871403,0.4935897435897436,0.5291381837694258,0.2346161157484118,0.7329957096547334,0.35877604882770486,0.8044183775204997,0.4385144202746563,0.6745820015834384,0.4562363663865253,0.5859278197886297,0.1659189287908251,0.8973011312807038,0.7466981440655829,0.5943374363597648,0.19711426456742454,0.6883858085653136,0.3711248983801615
27,2.3144661316971007,0.8603160064117243,0.7126823513718559,0.35903295738560215,0.7304880437809027,0.5911983871710179,0.7164480322906155,0.22523956542534462,0.7776240974004419,0.5353741968895086,0.8516592290211092,0.6327926998825859,0.8900939085769849,0.6852230606034374,0.6623010934305271,0.17675278875425676,0.7413099695645501,0.6970260040118054,0.8945767549848536,0.5663642178825968,0.8103727184354423,0.6366650168508143,0.8344181551688121,0.5027322727622873,0.6751840858263114,0.20038127256181937,0.9999678146076485,0.9999225301013817,0.8411470344496568,0.5038847911646962,0.7231882515137685,0.4198605532921403,0.5625909855676008,0.14603405312126747,0.7937150116002846,0.48330163782703106,0.8454761350589746,0.5945215279915894,0.9046726482909478,0.6209194913318828,0.8662569867327188,0.5542476287264047,0.8724650490321006,0.7566621530821007,0.7955542074621956,0.5184827050866462,0.5306776556776557,0.5714981198717937,0.3321545952514125,0.7675814687046153,0.4681023337768899,0.8324058436934096,0.49302204299538405,0.6834278509222063,0.5260773992121384,0.612734033345481,0.22282465310950542,0.8972676478256203,0.7016521838458317,0.6906944909195998,0.27600423776346045,0.7222299221832467,0.43140534942208886
28,2.300436852342454,0.8433707350583924,0.708920689971404,0.36656782334602867,0.7133177916167686,0.5450276789305237,0.7010444031569945,0.22904409067709555,0.776572298983092,0.4907222746595355,0.8434820124383468,0.6175324376753799,0.855883907376278,0.6586969712497496,0.6985147886161309,0.2162824639570877,0.7274759812850459,0.6646367391145647,0.8963829560950725,0.5808083806194432,0.7633118611961189,0.5946170008937763,0.8332088975544804,0.46621980484877307,0.6525435393813517,0.17086471620935967,0.9998614189364643,0.9996052180540691,0.8247562300243613,0.4632913345752991,0.7266351660228416,0.36030777117586676,0.5987711727890507,0.1305524143883358,0.7781340734258081,0.45979322880749673,0.8301520292513419,0.5921204096590826,0.9201007767988609,0.632521773864065,0.8335933094883607,0.4828761447021856,0.8492149877940376,0.7074294965356831,0.7872322996286767,0.4966437225687334,0.5400641025641025,0.5512618137634842,0.2989546699411271,0.7601384895154948,0.4332242053382232,0.805397074083871,0.45388090452859353,0.6676450752133243,0.48828912663096713,0.5590874407798834,0.19698845185790773,0.8974271415353314,0.7104400460562935,0.6812628766907355,0.2701632622293532,0.7031742730831606,0.4074200952260664
29,2.2837276041084604,0.8470345775131669,0.6516676532135026,0.3216375881561432,0.6736295120604676,0.4808960019010432,0.7549387678948218,0.25490724161469747,0.7364167466796114,0.44588080132003366,0.8274163457777188,0.584292731675877,0.8702285427746962,0.6555098629643108,0.714422869334417,0.2383900436110882,0.7411369260613876,0.6697029264626752,0.8700402699928166,0.4785200932351531,0.8256896136335113,0.6425021745363976,0.8375124619771701,0.5243141252066514,0.5910422467261138,0.13115775223826884,0.9998429470758736,0.9993500280467498,0.8546573470976967,0.4425631343013661,0.7136505786787296,0.39994303681570925,0.5894630509101539,0.16627747569034032,0.7414504081569231,0.40108227886406955,0.8345885586937969,0.5778316761322236,0.9271665138809934,0.6393716898517237,0.8598967763159093,0.5060169752192808,0.8453544847811492,0.6944641072195998,0.7838196486532125,0.48831484500301914,0.5306776556776557,0.5297208282021286,0.27392611322891014,0.6941653801179325,0.3687132872355212,0.8082029421938268,0.46242567923871164,0.6825798316863618,0.48752994414658757,0.6318296738338193,0.23377309495686158,0.9015537856752156,0.7380263268452465,0.6851265061407124,0.28095431964320206,0.7047398496928567,0.4064783950421486
