epoch,train_loss,train_accuracy,train_1st degree av block_rocauc,train_1st degree av block_prauc,train_anterior myocardial infarction_rocauc,train_anterior myocardial infarction_prauc,train_atrial fibrillation_rocauc,train_atrial fibrillation_prauc,train_complete right bundle branch block_rocauc,train_complete right bundle branch block_prauc,train_left anterior fascicular block_rocauc,train_left anterior fascicular block_prauc,train_left atrial enlargement_rocauc,train_left atrial enlargement_prauc,train_left axis deviation_rocauc,train_left axis deviation_prauc,train_left bundle branch block_rocauc,train_left bundle branch block_prauc,train_myocardial infarction_rocauc,train_myocardial infarction_prauc,train_myocardial ischemia_rocauc,train_myocardial ischemia_prauc,train_nonspecific intraventricular conduction disorder_rocauc,train_nonspecific intraventricular conduction disorder_prauc,train_nonspecific st t abnormality_rocauc,train_nonspecific st t abnormality_prauc,train_normal ecg_rocauc,train_normal ecg_prauc,train_premature atrial contraction_rocauc,train_premature atrial contraction_prauc,train_prolonged pr interval_rocauc,train_prolonged pr interval_prauc,train_qwave abnormal_rocauc,train_qwave abnormal_prauc,train_right axis deviation_rocauc,train_right axis deviation_prauc,train_s t changes_rocauc,train_s t changes_prauc,train_sinus arrhythmia_rocauc,train_sinus arrhythmia_prauc,train_sinus bradycardia_rocauc,train_sinus bradycardia_prauc,train_sinus tachycardia_rocauc,train_sinus tachycardia_prauc,train_st depression_rocauc,train_st depression_prauc,train_mean_rocaucs,train_mean_praucs,valid_accuracy,valid_atrial fibrillation_rocauc,valid_atrial fibrillation_prauc,valid_left anterior fascicular block_rocauc,valid_left anterior fascicular block_prauc,valid_left axis deviation_rocauc,valid_left axis deviation_prauc,valid_myocardial infarction_rocauc,valid_myocardial infarction_prauc,valid_myocardial ischemia_rocauc,valid_myocardial ischemia_prauc,valid_normal ecg_rocauc,valid_normal ecg_prauc,valid_mean_rocaucs,valid_mean_praucs
0,5.229600358524356,0.42515838485611784,0.42929518630115876,0.03299874794427876,0.6684257601552882,0.027603255321342994,0.7225893340059082,0.21261612873422334,0.9228724140228247,0.1761750068507682,0.9488370712745489,0.522908697101819,0.6460789987129744,0.02687294849321316,0.8450566661515462,0.5932059225430628,0.9404060484040284,0.23596910513816288,0.7012512221061941,0.43251371228301494,0.8190603596899249,0.3398902679665073,0.422199970400352,0.031271741508078,0.4330103223448688,0.01717514268868583,0.9049074529487986,0.7405581599821425,0.6678021696083343,0.03938240853441438,0.4654366821552772,0.020130482117735334,0.45131690406531844,0.026196059347152148,0.45519465290806754,0.013372277642434531,0.7237514185956381,0.07558219014366556,0.5481225404414052,0.03922029627970283,0.7091152815013405,0.10499546341845774,0.6815196537270651,0.18067501948210896,0.6897558960146294,0.09553478990159206,0.6725457275243405,0.18112944651920743,0.4823717948717949,0.7594917310071776,0.21784126583015945,0.9541479716455158,0.5208379928468108,0.835645967144411,0.5490979731722777,0.6966299933236898,0.42839263506212294,0.8167588720259753,0.35912890800303654,0.9027163257336334,0.7384998573325117,0.8275651434800672,0.46896643870781984
1,4.793215239105329,0.44874437065872835,0.7356632270767072,0.07522329082941517,0.6584523588199387,0.02834356001348516,0.7462919361417105,0.23728801713513958,0.9522056072850635,0.3431729426286598,0.9400342629453978,0.44589267826321133,0.5406251087014955,0.025335801666711493,0.8198932214962303,0.5864580915197918,0.9521661587286152,0.2486733995511809,0.6677639259447973,0.4606193118189252,0.8058715074355708,0.41297365949461884,0.4766703543452886,0.038337663919191425,0.5296234462246415,0.02938719995252987,0.8933394913088368,0.6984100579690621,0.6941751897770906,0.047613222189868736,0.5675271949878946,0.024087630394448566,0.5038949513931896,0.02952536761344346,0.575471690976215,0.01799065966164449,0.6984186460384467,0.08285734168109513,0.606349086275558,0.05264475331407319,0.8261656974637833,0.2070206658616916,0.8246148283471664,0.3092100027807731,0.6692226863961036,0.09966480687598515,0.7129291171868064,0.2045786420515885,0.4906135531135531,0.775200771128315,0.24033419038469767,0.9359933361652418,0.37506212461853433,0.8121503398616009,0.5438791199531351,0.6653425781684655,0.4457795788171528,0.8066247577965403,0.43982262044316056,0.886252224351516,0.6796718567573304,0.8135940012452799,0.45409158182900183
2,4.588456608904981,0.4573696664376765,0.5972584249361637,0.08662538879687295,0.6037285706548073,0.02215335861831274,0.7672089360005688,0.3605101702512896,0.968618779434147,0.3639602105689791,0.8510609978480514,0.25307682604761494,0.43074268023893775,0.024384283393323478,0.5958332376726868,0.3737714782293684,0.9575596210244364,0.28995166813897305,0.7736569896697615,0.5975046831835025,0.8709954947399032,0.4306645630568612,0.38725832255714177,0.029090402965364928,0.5021200055570803,0.02216505796437492,0.918708986629462,0.7608410301124828,0.5748716844274265,0.04677978740854008,0.5699913602476979,0.04306439840060091,0.47873354166518367,0.029291970256219393,0.3935166132058343,0.0198718249048526,0.767748304202519,0.09880402644759329,0.6351026185421089,0.07817664937386942,0.8225837401401651,0.32809257875137937,0.726531483496293,0.2196315038908671,0.7456516658597376,0.11929385936574159,0.6790673663068234,0.2089866236421357,0.49725274725274726,0.7856000320432723,0.3852380317539877,0.8563425901343386,0.2436454514110002,0.6002227393566024,0.352484426907548,0.7651752531434295,0.5818352191303329,0.8731698478246256,0.4587731936248539,0.9161583033733649,0.7739149150252035,0.7994447943126056,0.4659818729754877
3,4.434355460016903,0.47217769635905654,0.6395382127949026,0.1228423637749732,0.5880683689616859,0.028584829741856,0.8814937987871723,0.5401055110086922,0.9544947447716756,0.3658164114880045,0.8752679022504545,0.38658002607066544,0.5669917434296863,0.030897459284972312,0.832526279024646,0.6294853807972727,0.9374587553565549,0.34911063341453724,0.6925074741728483,0.5742567021956002,0.7791446320334079,0.40991759351518314,0.4033849407437815,0.0332020486595178,0.5991502526349936,0.042308428857872546,0.9228936740681771,0.7789746042323471,0.7127854694923111,0.09246824839903481,0.6896725361532046,0.052879846935360575,0.5079430670339762,0.031304792020153974,0.5662391060945349,0.02197487979440373,0.6689078594977693,0.07394195255925202,0.6826782355225401,0.08598583607601659,0.8725463102606317,0.27360313520863094,0.9092933121192253,0.5941134785541085,0.6902535165831007,0.14323960778593925,0.7260563723539671,0.25734517138065427,0.5416666666666666,0.8816088160794534,0.5310990983357992,0.8858146272500399,0.37011708186387676,0.8250256564444847,0.5967282029881844,0.6872552019583844,0.5600057598376992,0.7975807417928463,0.4258764944799471,0.9210327533244493,0.7730759995781605,0.8330529661416097,0.5428171061806112
4,4.339892503933346,0.46416304098923744,0.688130060076577,0.19116435586136166,0.5411810861097001,0.023381412917139764,0.8111813734038876,0.4197916016856334,0.9746278293934068,0.4307674580786257,0.8656184262685156,0.45004086002084037,0.49836892417932344,0.028848253274008438,0.6950288586466196,0.5507493061161992,0.9586141357796868,0.3775508960782911,0.682484134783032,0.5052895041534343,0.8348516585423741,0.47358378520262107,0.41215927758107923,0.03147879216829413,0.4508206958805748,0.023028600343056975,0.9206683713035355,0.7844511373263239,0.6456899231245361,0.11540177983669775,0.7327825022910706,0.13010402996794357,0.44623033245302446,0.024453992882091866,0.403105519578769,0.014058636079024425,0.6743886352458233,0.09883706175355259,0.6738835011842864,0.12504995853519424,0.87109566546408,0.45272979816793335,0.8157639535272168,0.3373377679908108,0.617391945155965,0.1078365209824435,0.691548491362413,0.25890615951916013,0.5183150183150184,0.8189990482799817,0.40489241049384733,0.871696291084798,0.4229792222662258,0.6901763046436247,0.5158636050858837,0.6787893624123735,0.4872832665190424,0.8356424127117726,0.4604284163005516,0.9153246748018214,0.7670997989095858,0.801771348989062,0.5097577865958561
5,4.25064292131294,0.4673689031371651,0.6411856023467329,0.12127061162743782,0.5362613578640262,0.019966592799580456,0.8423804903310885,0.4763124684275906,0.9867366338866141,0.6762707135052877,0.7052899791588209,0.2695311043621715,0.4655706393703377,0.019691048954417457,0.5031896635825674,0.2870765885728533,0.9590252009467759,0.3255030490082961,0.7019312310773789,0.53656119961396,0.84020434245142,0.47501487036566675,0.43193654692649175,0.03261256739771355,0.5475248409012051,0.03634346514124025,0.9315322271737758,0.8135153152999697,0.7276042266767773,0.1311506192185926,0.7493778703947236,0.09098767185403416,0.5037371601853631,0.029305060673042418,0.3511990861223748,0.011151222689399064,0.765029032330946,0.10575488244935713,0.694068986153347,0.13355163234217798,0.8792419828020551,0.4169019762994728,0.8773108497848567,0.49779229487371796,0.7334808008000064,0.1472084159792106,0.6988099432394401,0.25697606233887227,0.49404761904761907,0.8499216768383739,0.4483582376368756,0.711997391546753,0.24321735772155165,0.5135930834214115,0.27503669847097034,0.6919197173695338,0.5151213233663804,0.8355266811038926,0.4529809813217857,0.9267061078075745,0.805114608900896,0.7549441096812566,0.4566382012364099
6,4.157249572449773,0.5497290283184489,0.7023489250783175,0.22512832836890248,0.5626276318697968,0.021332379840432597,0.8970976463301221,0.5194590467927885,0.9748845694607433,0.5570883982198956,0.8369085394099427,0.43911021961248037,0.5285726031122622,0.027738542700968413,0.5952213150055895,0.4232007772818294,0.9719116519294645,0.7024784143258567,0.7205204189331817,0.5074041480378887,0.7922622361219096,0.4356437168237044,0.4183157699826085,0.0321589844537955,0.4685660543156681,0.02938228753215426,0.9335460127705606,0.8261182848332387,0.7238498825029943,0.17659456073506485,0.7883792708888304,0.14236127878321594,0.4284587714115551,0.02175026912386993,0.43183876263390425,0.021831602692976453,0.6436346983713739,0.08321564373913157,0.7132419020530433,0.2364011576303874,0.8680743137925631,0.4477149584504477,0.8446468329166277,0.4416558482442274,0.5940181434069687,0.10706394556936172,0.7017693614680921,0.2920378542633008,0.5618131868131868,0.8814573071286702,0.49739739501678254,0.8366995433547495,0.4278304830515969,0.5969463845506019,0.3885458763880659,0.7081453766551685,0.48442696829424226,0.7934962343389708,0.4043784769831726,0.9251082987434931,0.7989615123212854,0.7903088574619423,0.5002567853425242
7,4.083011500426498,0.5277459735898024,0.728481638249197,0.22379401981889566,0.5458102345571841,0.02036441909776778,0.8592830003533848,0.4424871314889506,0.9928110218869626,0.7668923777983209,0.8959783307479838,0.5815703848793348,0.5233337444226251,0.025377290701298252,0.7156439209122147,0.5262882834141434,0.9556000998932557,0.40518185037037213,0.643036319922905,0.45423042620747534,0.7219029452125816,0.354998208019576,0.43698656832261734,0.034453430553874204,0.42928153523236734,0.022844934580219467,0.9402113850833118,0.8371399043540095,0.7076056200278136,0.19372941706810443,0.7298818534479206,0.10484891395806764,0.4390154777751677,0.02249403274539121,0.6364862615747747,0.028430203604240367,0.6228410842676223,0.08716422303183133,0.7179791316802073,0.27177149751110247,0.8635062676617636,0.46547358266673583,0.8012229498833071,0.40163258230740195,0.5533227655258262,0.08758217360003195,0.7027373707564087,0.2890340585353248,0.5576923076923077,0.8562188764479336,0.421619549936261,0.8994384856369139,0.565034143341866,0.7133599127450786,0.4949250716097471,0.6380666518304217,0.44124482480075095,0.7302208544850382,0.3253082960116389,0.9301824119217189,0.8020849255579783,0.7945811988445176,0.5083694685430404
8,4.021772140110278,0.581558659644302,0.6029754645239975,0.17733581254904754,0.6520424026923646,0.03883395508142688,0.8404928532441536,0.48991124479183495,0.9795596984713462,0.556719205720678,0.8581958234700253,0.4926927120535015,0.4469783355943244,0.023805705423744557,0.5638416164520621,0.4408515851146031,0.9672657315302453,0.586694529403493,0.7823173093164387,0.6532657321702358,0.827445497251506,0.44832135327715184,0.4139720048939871,0.03532281628276794,0.40710385785919645,0.02112238638858146,0.9355826892905852,0.8193460925714197,0.7310366933636299,0.2687817802029535,0.6609241912315131,0.12780316387235305,0.451987338738572,0.027006370878069987,0.45644253464867157,0.05773086390346685,0.6325688703199379,0.10317032112969994,0.747057775357093,0.33514984797970154,0.8771813383930723,0.5291887547895715,0.8353675711047078,0.4897967027209263,0.6010321133716863,0.11548950510805138,0.6941532595963235,0.3108336564278764,0.5521978021978022,0.838191923528034,0.46111043809965013,0.8646815098497319,0.46388721460345494,0.5668735033740717,0.4126966491106113,0.7604425837320574,0.6138678497255978,0.8249097673385529,0.4179284011791614,0.9219554566060221,0.7743179618689123,0.7961757907380784,0.5239680857645647
9,3.9674793839882314,0.480955652240287,0.7673944076438876,0.23561496702498447,0.5828048123527888,0.022125036339692473,0.9120913833899257,0.5488325405982492,0.9632989817514694,0.4864446477671925,0.7188563896187322,0.3301296064421933,0.4564349704173821,0.02286189613141592,0.5578776172672516,0.39678620851300617,0.9572118731532456,0.6425080254047352,0.779585437315712,0.6271305220303082,0.7987273211632298,0.4257143360806491,0.41886214131354127,0.03285117229734465,0.42831281023323997,0.026794668324016894,0.9423153211803614,0.8430585171398587,0.7361696512067223,0.23680420055254514,0.8129029043205507,0.15668615476687173,0.48409334121102965,0.03177921353850553,0.46842431761786607,0.041526404198673324,0.6777096697387699,0.10483474689008501,0.7541924074550366,0.3406766647717136,0.8922780915774556,0.4851266065587591,0.8652896492139361,0.42127107356189214,0.6185347654155444,0.12922453621169674,0.7087894665708037,0.299490079324745,0.5517399267399268,0.8980719179901206,0.47441018950477254,0.7324642914033876,0.3213860774526613,0.5549569477958467,0.36400307672625865,0.7506060142427952,0.5866987487897996,0.7986094671962264,0.39400461477114257,0.9291554107099003,0.8088772759619572,0.7773106748897128,0.491563330534432
10,3.9254142189287937,0.6107930692313563,0.6711796338809575,0.25098433192541286,0.6459127792164446,0.02928940679037363,0.8406250630096709,0.5732046846384039,0.9714872475517452,0.44185414169795617,0.8375813906555023,0.4086995393242825,0.5705033946488823,0.03454806570085481,0.621260239467377,0.46858569209486317,0.959752742091968,0.748595926779757,0.8138857704378306,0.6633812222713873,0.8980771905276032,0.5712006310492869,0.49134227037336403,0.045964629313265434,0.558285524422067,0.029791916719115165,0.9296242071569225,0.8042094052845122,0.7935757138914421,0.26953547314393445,0.8037936980013173,0.18134006033761618,0.5407524861013233,0.0516818227393838,0.5150415330145857,0.028083889266328252,0.7511926631015671,0.1081687954498084,0.7581584640755253,0.27145374055725724,0.8610129785000413,0.5107552879275002,0.8136219366891189,0.5704460695297561,0.7334866627380944,0.18168156996513402,0.7445524358887886,0.32924801375028134,0.5572344322344323,0.827737805924,0.5581346087590212,0.8400074005734616,0.36374349161958397,0.6231566093915626,0.4322090070688097,0.7906075442305552,0.6240116898855569,0.8890718383498311,0.5579357866655296,0.9187414699642091,0.7864457724037393,0.8148871114056032,0.5537467260670401
11,3.8889052624393443,0.6036943744752309,0.8603568325481663,0.37887496641810614,0.6266554631197878,0.03242190954196255,0.9605277353979398,0.7176107079954837,0.9962972547773639,0.7797207438575492,0.9101373372081953,0.6639204605553579,0.5386942539203688,0.028856024067682236,0.7028430151232569,0.5961201679271332,0.9819343489147658,0.7321282423974653,0.7057064232626185,0.5772713953621985,0.8258589584609312,0.5029116297613295,0.5233156661829379,0.06000462027669606,0.46800624008091984,0.02764096654578093,0.9446895128901084,0.8464886673594781,0.8978864606472117,0.36626766107008996,0.9066685699598885,0.2477790438062757,0.5075243864532095,0.04074122679421798,0.6811781304847788,0.08326532348504205,0.6590118406028576,0.11460787526691263,0.8259363763357892,0.4012996602683603,0.9499018861120614,0.6067331321653657,0.9367449597388281,0.6951775649595932,0.6659325287061041,0.15098044499510252,0.7761730991330951,0.3932192015853266,0.5732600732600732,0.9442046520213819,0.6542022776714892,0.8814224034938671,0.5968880864199422,0.6907049271111534,0.5512748077058082,0.6849371314120396,0.5428423721565243,0.8270104713725009,0.4726500303220953,0.9263510670848313,0.7936301863879862,0.8257717754159625,0.6019146267773076
12,3.8375101367914626,0.44141668574917947,0.6659467640752167,0.21356822542201978,0.41981973805365697,0.014398197564354325,0.9095624183969491,0.5681140168090999,0.9859787126099857,0.6379676810725806,0.6987130366251024,0.3823514135624179,0.4006141041573777,0.015677681547008347,0.6492551588741664,0.4665423775100046,0.9536079808523192,0.5471830976029125,0.4245908452231084,0.24787717041757784,0.5452365807130344,0.22221956725668882,0.44896689192311323,0.037165824499806085,0.3680838475799668,0.014228821834126595,0.9457530313403045,0.8625403362944486,0.772630231430248,0.17021558890911886,0.609735344829524,0.06794140894132339,0.348199637910702,0.017459616811435007,0.47975738364703746,0.03164430698558714,0.5432374046955732,0.06437630939607089,0.7732205025274304,0.33463664806377036,0.908669408856453,0.4529130494305684,0.9250255623889322,0.5668428445170571,0.46900889958152203,0.05728271245987239,0.6475278857405328,0.2724157680412659,0.4008699633699634,0.9034139146168697,0.5457086387500996,0.7002120612754208,0.3187800764000299,0.6441149715516434,0.43037693218739626,0.43198634138199626,0.25045464344793233,0.5365434241943356,0.20137007891519196,0.9314786502514222,0.8224763872763813,0.6912915605452814,0.4281944594961719
13,3.8007221051949815,0.4629417601709793,0.6938608832665079,0.22326720428568275,0.49209615629533443,0.026803721320129873,0.857772360076082,0.5379476227082851,0.8597922506520993,0.3059410647044279,0.673601497784502,0.19304030638165817,0.44538742003522713,0.020911108942231773,0.6265600643714156,0.40503318423306156,0.9037035645538064,0.5804698554029566,0.6194818736338307,0.4459215408623759,0.744403258033029,0.3955112465507814,0.4524232535370575,0.034771438992797596,0.3808096980630291,0.015317398964948624,0.9510722746480953,0.8720408566615095,0.7714016709494347,0.21340595600428605,0.6934412815307872,0.11227536195644901,0.4399762245428208,0.023471149352982577,0.5434156176239182,0.03717640051712138,0.590383442273368,0.0902803473561948,0.7556402795218476,0.36941951517487154,0.8929482275467061,0.5085728676751062,0.9082246372302356,0.5684844427705196,0.5651874570500306,0.10383428611115925,0.6755265178735983,0.2765407671331608,0.5240384615384616,0.8549310503662774,0.5143681757659215,0.6665162215260448,0.1721426981506001,0.6227016197691917,0.3613491531965656,0.6043810504061422,0.4315801664244169,0.7352014051453806,0.3638111008783552,0.929515232278662,0.8192663847275194,0.7355410965819497,0.44375294652389646
14,3.757929994890539,0.4475230898404702,0.759514089830558,0.2542676050950189,0.5063484732483601,0.0286408808861434,0.9122770076694047,0.6731473291567306,0.974309082243939,0.5094910999608865,0.8789757617406456,0.502206367423593,0.4559413470447423,0.022350441492959516,0.7183665997653083,0.5433118044500661,0.9587823188937487,0.6212016712007058,0.6142854298812002,0.4634020809401877,0.8008231858770704,0.44686253776169715,0.45571320084030864,0.04600249574358932,0.41925004739258653,0.01817190208959378,0.9589646060432934,0.8901301636954864,0.8306488996546098,0.37611167416024904,0.8094840951376853,0.18976324764104083,0.4744952460949643,0.038002736502814806,0.6896874810869698,0.1563418256769377,0.6737499413444377,0.12143770601941632,0.7749738179409723,0.40594685005924264,0.8843012302782238,0.5506578495496486,0.8420187049219308,0.491209890625622,0.6734301407715444,0.17493262404202958,0.7302882139864775,0.3419813992806209,0.5595238095238095,0.8940125229984492,0.6288333924553642,0.8626372258801042,0.4261680766138231,0.7059450852376884,0.48972330229027206,0.5945259819739623,0.43233693718123933,0.7907356263388774,0.40313950810858173,0.9364472073820289,0.8437098791614954,0.797383941635185,0.5373185159684626
15,3.6902318122541438,0.4517975727043737,0.645884814256828,0.17784428776554478,0.4214680647678216,0.01383895054023409,0.857133198818372,0.5166203901622548,0.969157113647195,0.5049615608934408,0.7828704833128695,0.3948507465817011,0.4340081522168781,0.017425283008102213,0.5951194806298927,0.3858643175406056,0.9648369109999714,0.7028132996514213,0.4215773172113302,0.23047073285640934,0.5579768632961087,0.25960533736694547,0.49486677144852775,0.048763166097367625,0.40023313046340714,0.020576473956062317,0.9358295502677959,0.8400901506932879,0.7666934172202111,0.17567619445089805,0.6967113490976967,0.11744819491985115,0.3932083342231334,0.019046756330914398,0.5383412515886945,0.12814564332784883,0.5450665892702901,0.07367944073297714,0.7377812575121077,0.324421526232249,0.8678830570080025,0.42564975388745957,0.8270795273594527,0.4687090124402315,0.537888089289041,0.09587780046458083,0.654164305632074,0.27010813726819943,0.4036172161172161,0.8477822659643849,0.5023693332043244,0.7643979318218022,0.32194767563840027,0.5973627169292649,0.34107282687690876,0.4246789807499722,0.22695462412790865,0.551047283375856,0.21950012193328775,0.9136715085733151,0.775076701408701,0.6831567812357657,0.3978202138649218
16,3.6914078418593963,0.5981222807419281,0.7451749089285856,0.3692146100742857,0.5871095288215635,0.04058483826962055,0.9069472296438525,0.625393163003167,0.9542923249581068,0.47276333531389336,0.8786570493571437,0.5587448885554794,0.5150480816360089,0.03705785677306825,0.7150041039221251,0.5264382265334064,0.962533841050382,0.5835417338816649,0.6209500808308736,0.4836746502459828,0.6704341999460489,0.35587288064365924,0.5244764645966111,0.08064983608595253,0.4947969099349233,0.0382138344297164,0.953604548051462,0.8630638462513273,0.8559934860839066,0.45782307234023395,0.808881073397431,0.19258048247692663,0.5375730525836233,0.052259622348258525,0.658464337590026,0.14754178254782793,0.6410505515360806,0.11769190936329821,0.7980089867921389,0.42411966634469334,0.9028969505074624,0.6061608477352894,0.8413140607222186,0.5539112661713192,0.6561228651916571,0.17550336410539266,0.7376970289128287,0.35285480515883927,0.5709706959706959,0.8790549324435519,0.5876855326477638,0.8661508389529019,0.49430733196342713,0.7115356590062941,0.4811772671084551,0.5998169578279737,0.43973927830056464,0.6669326155635632,0.3013505336296751,0.9246113423810425,0.7788185733520284,0.7746837243625545,0.513846419500319
17,3.6543783148812223,0.6647584153881383,0.7829127507951311,0.32888851721998064,0.5921390479229766,0.03803869335459971,0.8287111502267288,0.4471312815373037,0.9788778767955151,0.515081870227933,0.9401984671919748,0.6449665624037683,0.5285359212985362,0.032127833413968146,0.7210387633660431,0.5327025633796251,0.9820868408315894,0.7645613960614616,0.679547300447906,0.4938520921429001,0.8293675190232925,0.4560746064622965,0.5506302983872211,0.09136317937189598,0.4789859218354242,0.03401788372890357,0.9616674140263936,0.8973266391920759,0.8221970198364955,0.416267130779891,0.8004325870775382,0.23953460355746403,0.47357697244941777,0.036376748182310396,0.6136684470132542,0.16701651240301602,0.7494435976801942,0.16719818500056358,0.7857616667759337,0.462686002075635,0.8874114700148119,0.5975957209153202,0.7583146541757579,0.4394533753130049,0.6986206279926481,0.1909297334549725,0.7474602870529445,0.36332686955358595,0.5762362637362637,0.8139513621438343,0.42295443640603547,0.9289793845908776,0.5647493835986795,0.7082123632615056,0.462269297550406,0.6493471124958274,0.4364760492667614,0.8196147540264956,0.43747384810353596,0.9352204171313313,0.8239270051731711,0.8092208989416453,0.5246416700164316
18,3.5836842891214715,0.5556064422563163,0.7371026170908694,0.310984641546327,0.5906118571196443,0.038063428738618066,0.9186411170778935,0.6481678555520038,0.969827148852869,0.6347718395451468,0.8109982677963069,0.5519151804511365,0.5490236629320786,0.03545603890917805,0.7394643222444797,0.582260172045591,0.9565899713359397,0.6669010084553029,0.6648844991052145,0.4659127402373445,0.7476655975890679,0.43445966195576513,0.5684778146620049,0.08316797010775515,0.4637405651112545,0.029092093045259365,0.9511597666670548,0.8728205262086947,0.8742524135787418,0.39866941858805516,0.8431592719229032,0.19159054289621694,0.4816416454894256,0.02623099287769484,0.6525547721358107,0.22284783968824853,0.6621973155738774,0.13780279669407175,0.8158168214055774,0.4634864445941617,0.9417052269552426,0.5867811521139985,0.8848754173334283,0.5447960507063366,0.6756637324338329,0.18235949661634646,0.7500024465642507,0.3685699041624206,0.5260989010989011,0.8926820306030666,0.5997846034970259,0.7863764734774068,0.47933848440952204,0.7157379468401539,0.5083765056125056,0.6362730889061978,0.40702385006992703,0.7416835441928159,0.394349771558522,0.922112469654209,0.7970071523284398,0.782477592278975,0.5309800612459904
19,3.549529337480809,0.5533928707732234,0.711827559498662,0.26543310503092354,0.5426336191311298,0.04443880489130164,0.885766031340524,0.5748721409752517,0.9611991964702085,0.4609360998864582,0.7959721521014871,0.3951987954487336,0.48073034756018507,0.02365434794087927,0.6145488010457268,0.43707922961318457,0.9737928275758426,0.6751789577228083,0.626578877214528,0.46778089353829233,0.7426455557737873,0.38584384383934395,0.5855187070445154,0.08675220116208229,0.4647876504158571,0.024242457428144792,0.96680186489945,0.9056715378869782,0.8272542812050343,0.42117302245714877,0.7598999347335277,0.23376718700090482,0.523192460190346,0.03562009972070372,0.5560434697088906,0.14764846210401014,0.6762862947585389,0.1559371170503119,0.8110690853341807,0.48577709501810096,0.9256118532024138,0.6337931683540562,0.8695872746792501,0.5602480386494391,0.6849319074695006,0.18016581763738154,0.7266672614251631,0.3455096556071109,0.5331959706959707,0.8656855736485881,0.5609015241386429,0.7756838063505548,0.3394295079398027,0.6046953210928955,0.381144391941593,0.5964532101925003,0.40725060135654795,0.7314524024537439,0.35479888079039507,0.9315727574309445,0.8213613438948827,0.7509238451948712,0.4774810416769774
20,3.505785564476912,0.519044347759713,0.6263944687567258,0.23560972953966275,0.475357442429335,0.03087609760912112,0.8005759393437514,0.4237083690592174,0.9607656593505142,0.48887800850373264,0.7192687890877043,0.4088380735438868,0.470933773515098,0.02468016902914332,0.5956819491543245,0.45482043643404324,0.9123900787432898,0.5710705585632474,0.5517946880258011,0.36424774290720174,0.7446464444550333,0.3764641404730186,0.4889159530718341,0.06041480726893144,0.4338421734479698,0.02293328995416655,0.957238650019835,0.8833353234672958,0.795320417147864,0.41305279323819394,0.697201784299929,0.17334153288743073,0.44174111327035925,0.022719492779400476,0.5521398202505599,0.0854476655866462,0.6912171333332174,0.1478778157919792,0.7898127835689298,0.44919061708925107,0.8926187940543574,0.5376012412940397,0.8951748002334513,0.5486844139489231,0.6273866784300519,0.1695743138650604,0.6872917879086334,0.3133348469469815,0.5521978021978022,0.7914740514799551,0.42287847070263473,0.7108516301173472,0.3510730785511319,0.5857020354879634,0.3938316624794115,0.5326118281962835,0.3210398442650789,0.7360220474558042,0.3466199107105637,0.9278162705777677,0.7993370039951326,0.7140796438858535,0.4391299951173256
21,3.4906858044101594,0.5473627967330739,0.7978281028715063,0.3268086249648756,0.5633200461999921,0.03332774658152604,0.9190419912364823,0.6414435826279321,0.9871150820697041,0.6132700670917905,0.8338030140042045,0.552798507588471,0.4854392172859885,0.023973925260522094,0.664774595541963,0.5339369235043177,0.9827511751822722,0.773322887048852,0.6696349810264417,0.5239249249650755,0.6341418950966153,0.31996230363725797,0.582944391502892,0.12301943280915549,0.3868034059700287,0.0178029954052886,0.9663374841834355,0.9105989600996989,0.835703816442078,0.39293973782836755,0.7397568730241155,0.15080744831938023,0.4702465102042269,0.03261706995096482,0.5073825122556436,0.03717439469006223,0.6097187487508537,0.12348614139806663,0.8680244354677384,0.6018934717603518,0.9264664003114031,0.6295229088651456,0.8489665655088209,0.5432672792039094,0.5570959211475279,0.09669073226690136,0.7198771438765426,0.363754093903087,0.5384615384615384,0.893881911833981,0.5965472440696798,0.817067282164286,0.47982231301418343,0.6520829658082816,0.46248533024165184,0.6272436575052853,0.4356330665102125,0.6310821197588341,0.2764136045700126,0.9250516834616949,0.8061134168879651,0.7577349367553938,0.5095024958822841
22,3.444930973512309,0.5570567132279979,0.7129028465297208,0.28416104124279495,0.5460748305195158,0.03973042947147869,0.8864432194873126,0.5880897370063553,0.8959188065942738,0.3253893422580951,0.6680790386563324,0.3741909482960217,0.5144406181518058,0.028887317558615306,0.5700463589178457,0.37057790331924145,0.9195742160478958,0.7074673444762956,0.7092952393928337,0.49154987424125357,0.7023334597528247,0.36398542553250307,0.582883451051089,0.10880248684894239,0.4514636610071592,0.02588394156408104,0.9664921378353716,0.9092828252825264,0.821120857125249,0.39822882140925053,0.7855734120427506,0.19933048741116263,0.4549273567243969,0.03587484200877929,0.582422607879925,0.21839329021300413,0.6736392344015308,0.153563881522296,0.7778554414135455,0.4036656230212837,0.8761391152983522,0.45100353648298946,0.8483192360824994,0.5049076879108692,0.6646389728956866,0.19761799761435714,0.7095720053549054,0.32639021748600894,0.5766941391941391,0.8872268376337784,0.5746486080706995,0.6474713601125683,0.31213452975800204,0.5570778805399128,0.31293795690501713,0.6755900189162124,0.42532971856012625,0.6982947122929763,0.32065498859748914,0.9247809366029623,0.8048255507078254,0.7317402910164018,0.45842189209985995
23,3.407171055593797,0.6156018624532479,0.6574532420360671,0.31766762963674366,0.6194348845073392,0.037068085216169125,0.8571592428156595,0.6594819098385545,0.9804985164421259,0.5897757769561033,0.9173159002598557,0.5652567799766524,0.4901515654596452,0.02799738867908707,0.6044167951413266,0.47651465908560736,0.9816344481450131,0.7598686934522983,0.793370732971313,0.6693674701314833,0.8767366700072919,0.5583005175076718,0.5966431856185891,0.13416031609767406,0.45670901088763405,0.02239235151290491,0.9650771121885827,0.8931127596448587,0.8469383790504313,0.5136565466580973,0.6496471788923283,0.1476426756441352,0.5268095566897539,0.06522909205776788,0.6598831931247352,0.23425950275044785,0.705042988009934,0.1747000186395796,0.8155443262679597,0.5690252591707722,0.9151232721592468,0.6412185633264527,0.8420483448475984,0.5398721970798344,0.6965001524103903,0.24065831874226773,0.7479153953605827,0.40169211417296197,0.5547161172161172,0.8511076262117452,0.6295730323936979,0.898723318111825,0.4769219426974193,0.5877763340967628,0.40660615605105876,0.7357894736842105,0.5772764788988729,0.8502620035011733,0.4569362950375514,0.9227412767173806,0.7892905169679697,0.8077333387205163,0.5561007370077616
24,3.3517391491496795,0.6607129226776582,0.7637943964841518,0.2910711467315165,0.6347986508899646,0.06651726776375116,0.9076928219736698,0.6002345559204951,0.966521556429007,0.5005287761267964,0.9236245837598641,0.6634142034427529,0.586849253556713,0.034951607503810274,0.7412651861678371,0.5573694446078374,0.9626158330810218,0.5812730601429805,0.7054944463575091,0.5540023295244042,0.7560637128410308,0.41366007930268034,0.5852310815055104,0.13336844312484153,0.4787426284852371,0.023156021659218935,0.9785911940801051,0.9407532514194792,0.8543529492150342,0.36766276251586816,0.7778763144150482,0.27010890412669153,0.5203771328507057,0.0677860427526803,0.7436728348362888,0.24730490946382824,0.6716680599173087,0.18173687022459237,0.8474797141574755,0.5663847305486901,0.928519883122726,0.6493017949080389,0.921046115794183,0.6511468870739539,0.6683016535303425,0.1830684681052007,0.7692990910659425,0.38840007077227773,0.5764652014652014,0.8920690288711626,0.5684735913988499,0.8890212658631127,0.5520153640014489,0.7183977799697184,0.47013325976630277,0.656381439857572,0.4611371283557796,0.7251251567198858,0.3452133644831883,0.927245085290293,0.7940819744546826,0.8013732927619573,0.5318424470767087
25,3.309718463987023,0.6446072818868789,0.7697105509986635,0.3221393125266373,0.553123769427492,0.045432892048878945,0.8629517992378349,0.528348207514212,0.921620998365268,0.3157304564551199,0.7417772792699526,0.3553380698804238,0.4933395629172161,0.02699462572405113,0.5900320545160861,0.3501350045844949,0.9606626105290144,0.6840009359245649,0.6656986248019666,0.4822060057327009,0.7234692426800984,0.3325813595814372,0.5826002621109102,0.1241626301955254,0.45688831569142874,0.02449565225358067,0.9785715073264387,0.9403701587956295,0.8404780533814218,0.415424738298549,0.7735815407533293,0.2754191763070454,0.5023030397942307,0.04392680692752959,0.5847265932336742,0.16219561622793285,0.6499165787557373,0.15322812189165363,0.8086078877340206,0.4965390515601039,0.8852655183395879,0.5849296920645473,0.8661734430196174,0.5590657799443272,0.6498607693078713,0.17615562978530142,0.7209709091905391,0.3363099965556476,0.545558608058608,0.8492512061941039,0.4705088153758569,0.7086920233101471,0.27441943479551134,0.5779204243706308,0.29452475783632454,0.6310615333259153,0.4165895121712786,0.715808762285524,0.303265780073944,0.9314571364443389,0.8220309060677773,0.7356985143217768,0.4302232010534488
26,3.263583902111218,0.5707197923822609,0.7073058737408763,0.3051239065594415,0.6220120418610575,0.06476818223854297,0.8976477981370008,0.5319990424641935,0.9286639267394011,0.42223325820909546,0.8084167940312931,0.5418416510431492,0.4930489544101976,0.02991385868760612,0.5941923119194323,0.4736008421521275,0.9733004333864477,0.763046607580029,0.7388202674122331,0.6435943476898724,0.8203528020641371,0.4572673161827842,0.591336511165831,0.1389140053588002,0.39478794469473355,0.02437103353454729,0.97448831790556,0.922211354771058,0.8361767519379637,0.4867744536659119,0.7281149379294118,0.25220956302381414,0.5182323588243251,0.08402520558782711,0.5905571022211463,0.18925962917947145,0.6521836379657034,0.22423406967647191,0.858286222437394,0.6364249021405745,0.9534641490421153,0.7465657716774072,0.8722154026739471,0.5169949468815251,0.5737567086982658,0.1522248811183356,0.7330618749635669,0.3912544922464811,0.5625,0.8529997466143409,0.4635362672496681,0.7745509046620296,0.4450563367392997,0.5595387515857907,0.37861960429127717,0.6854372983197952,0.5316110056755057,0.7982423992682022,0.3970076762765566,0.9169685309617654,0.7642398236117295,0.764622938568654,0.49667845230733937
27,3.2058964182007323,0.5343103579879398,0.7931156055617997,0.3950724749986285,0.6135515585177942,0.05891534648363214,0.8724429570133435,0.5310812237533409,0.9866807762671737,0.6157975658591285,0.8188372156668312,0.5911851750940926,0.5222013515351023,0.054097857221293025,0.6675604747314734,0.5668273643109403,0.9794443106149844,0.837463376942704,0.7498585731896574,0.6054982174009278,0.7988797606009974,0.46517908335936553,0.6164942029558128,0.1442520277146541,0.4394533188155754,0.016836130544703464,0.9701434219881813,0.9134923657159176,0.8527026990817281,0.4184344741917899,0.772154070836977,0.24998057108939484,0.48983812757597106,0.04921214934979805,0.5673697270471464,0.17987528943283185,0.6761841037343173,0.20927463048472206,0.8757329715754455,0.590989516309525,0.9714248040671133,0.7677927133445451,0.9073308542783349,0.6080722829240018,0.6135246120234406,0.14867997400486543,0.7524966135308729,0.4099095368423092,0.5693681318681318,0.845769112549382,0.5052002975031643,0.7768162932087295,0.4867697415382966,0.6186027247220743,0.4577901291310724,0.6989024424168244,0.5100537573354903,0.750163222482326,0.3677093723304405,0.9072563680868967,0.7394853769989025,0.7662516939110389,0.5111681124728944
28,3.194482756055918,0.5466758262728036,0.6969035719125396,0.29646509574415564,0.5182651727302936,0.03305397374568399,0.8981329504939427,0.5787933884369294,0.9823741025627886,0.5675652488568727,0.7610842063889556,0.4376062758563547,0.49997754820021945,0.024963746999343867,0.5753377753314376,0.3986516027564668,0.9834201505912928,0.8088725784563953,0.6038164863875334,0.46824189733190164,0.7763097814724811,0.4171909309111927,0.5912986745116895,0.12656871308990866,0.4992069868648966,0.030173152984888926,0.9817866886091183,0.9540289271201206,0.8690497881838474,0.4803895779717403,0.7681728909600315,0.229714795272972,0.5254404510218463,0.0575272438467298,0.5623384827210556,0.1834493477771179,0.6530635582984152,0.20175832725950257,0.8479855364086114,0.5776403539830572,0.9463954415167084,0.6872428097183737,0.8902970673831778,0.5554947426864791,0.7059014127657293,0.23770410370527514,0.733479942059846,0.37968621975052097,0.5448717948717948,0.8726175435174631,0.5255327820020986,0.7081531586842245,0.3312269173356344,0.5532210534712517,0.3243675104038448,0.5602325581395349,0.38903545709477894,0.7513833726411647,0.33102279298658893,0.923199231441259,0.8057661059334257,0.7281344863158163,0.4511585942927286
29,3.1099839031982945,0.6942218151286161,0.8142329143118296,0.36813435606306966,0.6112781558649543,0.10067580247560863,0.9157885697892462,0.6331212012528771,0.9754792737484562,0.5549971869914813,0.8891683877611087,0.5878386890796842,0.6219151701435334,0.061642617605898536,0.5798862702630954,0.4033566213651246,0.9649052008583748,0.7446562042707204,0.6942949298807337,0.5723561956081018,0.8696539502087987,0.5515719416215417,0.6688914396076775,0.2588911250628152,0.5209507739876635,0.027805686859150944,0.9768647063603857,0.938061935310163,0.8697859866399071,0.500574651624153,0.8123528975391319,0.3297050362593125,0.564367660632636,0.14133824149136337,0.6010927948919687,0.20753856862276845,0.7004450870969929,0.22081260704000683,0.8727424172890685,0.5833802910602126,0.9518338323983938,0.7028621088353831,0.8841006853536845,0.5118822106936853,0.7244972840545751,0.23719548452436529,0.776569472212828,0.41992721653261306,0.524496336996337,0.8970592460949438,0.5989499610657926,0.8564371714543622,0.45877072486618775,0.5652498991383423,0.3317339483254813,0.631854066985646,0.4719350673525814,0.826640480929126,0.4327553618850807,0.9153211520731762,0.7626799870756934,0.7820936694459327,0.5094708417618029
