epoch,train_loss,train_accuracy,train_abnormal QRS_rocauc,train_abnormal QRS_prauc,train_anterior myocardial infarction_rocauc,train_anterior myocardial infarction_prauc,train_atrial fibrillation_rocauc,train_atrial fibrillation_prauc,train_atrial flutter_rocauc,train_atrial flutter_prauc,train_bundle branch block_rocauc,train_bundle branch block_prauc,train_early repolarization_rocauc,train_early repolarization_prauc,train_inferior ischaemia_rocauc,train_inferior ischaemia_prauc,train_lateral ischaemia_rocauc,train_lateral ischaemia_prauc,train_left anterior fascicular block_rocauc,train_left anterior fascicular block_prauc,train_left bundle branch block_rocauc,train_left bundle branch block_prauc,train_left ventricular hypertrophy_rocauc,train_left ventricular hypertrophy_prauc,train_low qrs voltages_rocauc,train_low qrs voltages_prauc,train_myocardial ischemia_rocauc,train_myocardial ischemia_prauc,train_nonspecific intraventricular conduction disorder_rocauc,train_nonspecific intraventricular conduction disorder_prauc,train_normal ecg_rocauc,train_normal ecg_prauc,train_premature ventricular contractions_rocauc,train_premature ventricular contractions_prauc,train_prolonged pr interval_rocauc,train_prolonged pr interval_prauc,train_prolonged qt interval_rocauc,train_prolonged qt interval_prauc,train_qwave abnormal_rocauc,train_qwave abnormal_prauc,train_right axis deviation_rocauc,train_right axis deviation_prauc,train_right bundle branch block_rocauc,train_right bundle branch block_prauc,train_s t changes_rocauc,train_s t changes_prauc,train_sinus tachycardia_rocauc,train_sinus tachycardia_prauc,train_st depression_rocauc,train_st depression_prauc,train_t wave abnormal_rocauc,train_t wave abnormal_prauc,train_ventricular ectopics_rocauc,train_ventricular ectopics_prauc,train_ventricular premature beats_rocauc,train_ventricular premature beats_prauc,train_mean_rocaucs,train_mean_praucs,valid_accuracy,valid_abnormal QRS_rocauc,valid_abnormal QRS_prauc,valid_atrial fibrillation_rocauc,valid_atrial fibrillation_prauc,valid_atrial flutter_rocauc,valid_atrial flutter_prauc,valid_lateral ischaemia_rocauc,valid_lateral ischaemia_prauc,valid_left anterior fascicular block_rocauc,valid_left anterior fascicular block_prauc,valid_left ventricular hypertrophy_rocauc,valid_left ventricular hypertrophy_prauc,valid_low qrs voltages_rocauc,valid_low qrs voltages_prauc,valid_myocardial ischemia_rocauc,valid_myocardial ischemia_prauc,valid_nonspecific intraventricular conduction disorder_rocauc,valid_nonspecific intraventricular conduction disorder_prauc,valid_normal ecg_rocauc,valid_normal ecg_prauc,valid_premature ventricular contractions_rocauc,valid_premature ventricular contractions_prauc,valid_prolonged qt interval_rocauc,valid_prolonged qt interval_prauc,valid_qwave abnormal_rocauc,valid_qwave abnormal_prauc,valid_s t changes_rocauc,valid_s t changes_prauc,valid_sinus tachycardia_rocauc,valid_sinus tachycardia_prauc,valid_st depression_rocauc,valid_st depression_prauc,valid_t wave abnormal_rocauc,valid_t wave abnormal_prauc,valid_ventricular ectopics_rocauc,valid_ventricular ectopics_prauc,valid_mean_rocaucs,valid_mean_praucs
0,4.8838652606537725,0.36826414250577627,0.7378787384371266,0.14505007448812435,0.7218624804379818,0.017844893454202967,0.8066646920421492,0.09342471816359901,0.9320482400531841,0.6635466977877181,0.8773125781483886,0.21231729505459818,0.7869531934922862,0.02020566650004573,0.49589291515667816,0.009989188129733914,0.5188535824329963,0.01584365321539871,0.8956431684686148,0.23864872853356311,0.9331159234235509,0.2157419449803943,0.5456712755836965,0.07842759833120785,0.4527128973077774,0.0201520981344186,0.7936864836723527,0.09787928212453348,0.43320817484781565,0.021637778380040714,0.9294043737516607,0.7501892050716898,0.6987675679566434,0.09290582176740267,0.6882742328597523,0.013981220084154526,0.6044012485989702,0.052328354826158364,0.5471424529080484,0.03814727775475804,0.47620670642940854,0.017837459510403744,0.8206214163995129,0.05113040089049499,0.45031263296072394,0.0773098659119793,0.9520863811129908,0.7939615143409906,0.48871236443062976,0.0395251175332052,0.5597209114896996,0.2497184798141711,0.9238901949732014,0.28066219724436064,0.6691015763059306,0.01702658796466056,0.6940794964326581,0.16020122666637068,0.3835432660058135,0.745858039029208,0.1481738325242732,0.8069643708989529,0.09631380679196905,0.9307545125203184,0.648138103623799,0.5254848288699455,0.016210802051517433,0.8778808105240209,0.2344844842208123,0.5543752005592739,0.07612905760140468,0.43362318738515726,0.018842293567429443,0.7836233059125246,0.10005802395102992,0.43232769851367747,0.020083132573397888,0.9284688134689968,0.7601961356198753,0.7464636453052885,0.10677907224193572,0.5892202509271076,0.05465926676315245,0.5636836856877746,0.036211794973248404,0.44837208736288703,0.07960987904618669,0.9447756235882369,0.7647965283511728,0.4759542904932589,0.037112455151741434,0.5577641779582875,0.24441559413248512,0.9253162242728856,0.2742562007537812,0.681717264070989,0.20647058132995622
1,4.394829700749598,0.39611438225137263,0.7844515546472851,0.23203487011526308,0.7489716782422651,0.02138290507543216,0.8872000711767023,0.15030533620871023,0.9509915286271255,0.7453063368021879,0.892340958270478,0.3655308922993132,0.8075350113564647,0.026169140014782426,0.7227837243174107,0.028805866631344504,0.6777179043023979,0.035427190790569274,0.8936343213929211,0.22748740222600078,0.9305140279645125,0.5069044852374159,0.6515369961030821,0.11797864225101509,0.5886856160522312,0.044333772109995256,0.9126775102494799,0.29289289659208984,0.5034936700492694,0.02583462182856717,0.9400922470735583,0.7777833523986056,0.9075659555959008,0.28109298420002876,0.637841236529589,0.009553146104434482,0.7554009461002028,0.14336882781853003,0.6258650699215582,0.0563664482577747,0.7013913876121143,0.05226041576049674,0.8909184641025265,0.06366632789293608,0.633689601788287,0.12022722263509647,0.9864196182120282,0.9183839091708319,0.5891597691911931,0.05042442824049308,0.7229925151920141,0.3702817287629616,0.9711112889397862,0.425376226059255,0.6964855986927181,0.025829002581232052,0.7782025285815963,0.22648179178019864,0.3955429678765745,0.781674439587639,0.21291029007112472,0.8787021542221161,0.1616717954728982,0.945244935034581,0.710777211700721,0.6726857489751213,0.04100843951934764,0.8759417929101895,0.20985138987971097,0.659780272989823,0.11969147705293434,0.5622432086180376,0.0429332568215606,0.8995297630895024,0.26230583227627835,0.4921489776901966,0.024156477238968965,0.9395044782286979,0.7817114812578035,0.9249591435272754,0.29475075077518786,0.7344970837345524,0.12378488814717159,0.6212642151370595,0.05750566063223523,0.6318919160122022,0.11722892326296974,0.9843366591742354,0.8957911082347625,0.5780945768896154,0.050656698502470406,0.7220952975841204,0.3581538533663241,0.9581378558104079,0.4164863635442688,0.7701518066230764,0.27118754987537436
2,4.238893844329604,0.43867233112220816,0.7781088876379152,0.3088443777665238,0.7195456322641332,0.019511101605939787,0.8848337740862269,0.14744818030802556,0.967886948816133,0.7623844679666222,0.8449772367770739,0.40167132967548536,0.7995366871510265,0.022744010593094263,0.6639726307668345,0.022461843801891698,0.6680799407400906,0.03464949000677479,0.8109553504649746,0.31026827973429366,0.9315023074504742,0.59508954153951,0.5649438463089801,0.0921915308737524,0.58317455577498,0.04542994030290884,0.8671022339016218,0.295421458784366,0.4688539625841235,0.024248807435744164,0.9431372816875772,0.8051025883603864,0.7742531810745557,0.15200618047013645,0.7177346946706863,0.015885560003815153,0.7641021242115139,0.18695223779917852,0.6117043794515161,0.053993743651951816,0.5709423359890534,0.06770917087821372,0.7973034376034842,0.05336756890609586,0.4580974606466747,0.10039801293970313,0.9874856811721047,0.9323027448797748,0.5639089624248683,0.0635082836886133,0.6394161333635303,0.37057858499819074,0.9216948964374682,0.49834928135873274,0.6963589453594402,0.03662985844352449,0.7407264262524836,0.2377462287693796,0.4342252366400835,0.7787733416244489,0.2864014548693384,0.8778870844554186,0.14243724738213231,0.9634701520286422,0.7373164469109371,0.6800275738991468,0.03581892621520915,0.8075691187288362,0.2797972661080879,0.5637108527398307,0.08817710042403551,0.5446606465758312,0.035194669310752005,0.8431957599885367,0.23817049771543658,0.4729351275255975,0.024542444870809255,0.9441217859095232,0.8143632569290066,0.802939017931452,0.1904504905638486,0.7542201926184581,0.1664173872233641,0.612733956461457,0.05869856969057831,0.4526143960537418,0.1039200362254995,0.98477777537458,0.9131679702004908,0.5437244131168905,0.057361159006315464,0.637539693055394,0.3555380526856646,0.8952834398259759,0.45439062193913665,0.7311213515507646,0.2767868665705913
3,4.137727797092117,0.3983006633375568,0.8350429857803834,0.4132996147397419,0.668324049692971,0.013920622209293704,0.8948694897111363,0.24498169018895255,0.9528650739498493,0.7193835170938612,0.8648422188458833,0.4235129469484045,0.8429295361647251,0.07013860024603877,0.7127375013945673,0.04873359903213975,0.7422505193978276,0.07704485282576551,0.8679060041825627,0.2862303820494928,0.9204614566498257,0.6015039081349893,0.7136366488044458,0.19770903549679525,0.5553662119477726,0.046163256375666095,0.8937304191499655,0.33070171987498553,0.5021717615139433,0.02996630017399121,0.9482463800893955,0.8018543690113968,0.9179899953808319,0.269016007518525,0.6513079831442896,0.01190780219668426,0.7719003868882616,0.21147637056474355,0.6085666074768711,0.06352083531864235,0.6525689160767035,0.08981828019564878,0.8476633136428258,0.06800283025011448,0.5274626561230056,0.11540064259431453,0.9827624313652377,0.8798322610743944,0.5648597161946753,0.0710004874608789,0.6348004440942236,0.34872738838883605,0.981458632976422,0.5986154188829936,0.745159439332388,0.04373489372369792,0.7704400288878146,0.26208139379892553,0.3802638443765372,0.8380787168279167,0.4362105390152552,0.8817932335382288,0.2294254648101465,0.9481564003952107,0.6961021382714615,0.7560854571452603,0.08446809606993898,0.86323915095341,0.26174716742438253,0.708863669356071,0.18799347105167402,0.5249735762731659,0.03603272547773773,0.8729810043512861,0.2849388119510311,0.5051151064557458,0.02822105885839278,0.9417842071814119,0.7910702597230109,0.92909661799198,0.30448197095073504,0.7525670382871251,0.1727558431837659,0.6140144578045236,0.06540709316134644,0.5236485039267865,0.11481494632633044,0.9817648862853015,0.8622903614926808,0.5469869126542133,0.06320637862005435,0.6335981940617477,0.3290538112317939,0.9684082500294379,0.5626531906837094,0.7661752990843789,0.30615962935019153
4,4.062058402299555,0.3803632207895456,0.8358905780053101,0.36889427105969747,0.6890664263394732,0.016434074145323347,0.9179414829395222,0.2906803700935834,0.9677665442824671,0.788481983024103,0.8808343614326798,0.43139528059569443,0.8993152944642842,0.16057070492001485,0.6590265043253369,0.022387066599700092,0.6726341037852959,0.02826276361914495,0.9097646669885145,0.3878132551696975,0.9473190456123453,0.630845187115514,0.660920884322968,0.13629407025076398,0.5812011127106249,0.04210107427736236,0.8820743644850233,0.2843594037885921,0.49016314401757916,0.023578086520044013,0.9629606594633656,0.8512740328335072,0.9360860748493673,0.32577072499010556,0.6442274743638857,0.010689453703731776,0.7854849769715083,0.22964000852705824,0.5813038230474015,0.049512939734331546,0.8229895723945554,0.17339146306776504,0.8775764142179074,0.15302438659049594,0.4891891312879084,0.09622152298997366,0.9885109500643007,0.9198610722312839,0.506239793711893,0.03851308532361485,0.6358734081304918,0.35047540181852693,0.9848053721830183,0.5706798622148449,0.8063046000191268,0.06128579931878756,0.7783507690524503,0.27564582757493566,0.3655064470447939,0.8329075601563118,0.34025763853034635,0.9060015333499986,0.2659108969531963,0.9610929382642599,0.752780014293796,0.6792131564800492,0.02975635661009051,0.8935276557473335,0.33879111240838744,0.6516110162433911,0.11673418623225759,0.5510152521096433,0.03198066497573932,0.8634917560692703,0.24802601703795296,0.4888717177719343,0.023267166293928564,0.9614474031161189,0.8530395584245389,0.9477059847166527,0.3507407731866315,0.7774970054343661,0.21078461380855343,0.5838093636914715,0.04903836456555343,0.48683698968001554,0.0912903270071305,0.9862089351264147,0.8946759823914577,0.5018452067141715,0.040488647854111895,0.6277049414530249,0.33034291432094015,0.9667262653618993,0.5278219193689703,0.7593063711936848,0.3053181752368657
5,3.9915532892480265,0.44669697647263423,0.8230553326363231,0.3971926596465009,0.7262441650998039,0.022710501877233474,0.9328496026860263,0.35110115146209436,0.9529490396074662,0.6999283970085459,0.8796286850751619,0.4596610403809742,0.8841502859820018,0.17701500834335238,0.6690015721022243,0.031026593151998655,0.7011888348869555,0.04767496817981104,0.920486185451459,0.44398417456065176,0.9578180010122699,0.6325040487254304,0.6814360546787525,0.17021139797089457,0.5597813549289593,0.04216730570868624,0.8834751841286088,0.34812276020687605,0.504873422839179,0.026628463645276164,0.9626679298044195,0.8498773989375565,0.8568194011855992,0.20945859115753568,0.6316765768916871,0.01214387486449773,0.75228618728043,0.2805313163316155,0.5574589430032553,0.05099797391535378,0.6791387704237117,0.08702623150771818,0.884979896543115,0.13965844075554645,0.4209886186203222,0.10576804377517943,0.9858208649391915,0.9197477441393761,0.4797271001744725,0.04707583866299207,0.5878322098235949,0.3141881772226468,0.9766268472130741,0.5493215756489082,0.8044149040120749,0.051472047993315756,0.7650879989270422,0.27656280465853955,0.42386524558396066,0.8166323438862166,0.3565749119861318,0.9173701191784824,0.296789401758099,0.9490119200654433,0.6740845806431449,0.716497895387406,0.05241531601193884,0.9035094222254871,0.37922274383450905,0.6779352804773693,0.15053520886891725,0.5320573651627003,0.04361866268759386,0.854057894938079,0.29301736169538745,0.5071107070078602,0.026491385257223856,0.9583185859508464,0.8404812417380115,0.8615612468790194,0.2254565112194393,0.7355988048392847,0.2293883410639002,0.5626616802727288,0.05067966096150251,0.41519694781592775,0.09543837847399644,0.985153284274823,0.891018749263917,0.47286844194659894,0.056164930592056767,0.5791624416040005,0.2988270401879398,0.9599933687413623,0.5078266698444215,0.7447054305918687,0.3037795053382295
6,3.942927329597294,0.3953442150505577,0.8119783622674905,0.3467794628919981,0.6728083020738591,0.012216258929845167,0.9228659142820973,0.2898391564205565,0.9756910647342523,0.8621797635611937,0.8553877783935502,0.40898409820361437,0.8834419872880838,0.19261030193462458,0.6900507616331453,0.035916597550051436,0.7241531265656599,0.0814306132244096,0.9104531871062467,0.3981109470384575,0.9447340013079584,0.6526367034677969,0.7200968930304489,0.23572810392547502,0.5760371562962775,0.04623313302632791,0.9107848710061854,0.35269156097015514,0.5422821013076217,0.043418284187186615,0.9640676137428084,0.8520770341867707,0.9202341457153296,0.34050381266516566,0.5641942182026127,0.006552092248598637,0.8101369880021437,0.32673918607976976,0.5837133894623053,0.07538368952619655,0.7650641247336021,0.11859124875809089,0.8703554133419491,0.10760531179346608,0.574873987557024,0.15441744288892828,0.9872501953105617,0.9294459362362522,0.5496135727387063,0.06583393034572826,0.6674765176799464,0.37840651990589014,0.9830323459024198,0.5994524692022235,0.7937503274441889,0.06747919184040609,0.7842417906343141,0.2956023278151548,0.3690839979130953,0.8043000408459375,0.3351685247146139,0.9034515293656175,0.26716760735842554,0.9715086000828668,0.8354458560709748,0.742971764180993,0.08155279349311806,0.8969989665087506,0.3375089527014249,0.7170037972555852,0.2116119382310617,0.5397142305487039,0.04579966488639708,0.8915394519101957,0.27496939741202797,0.5298456856607734,0.03987922823182542,0.9593479752335619,0.8440399524832204,0.9243476204887644,0.3971559164061934,0.7938766338916526,0.2648848219842365,0.5938495294882145,0.07073453888083645,0.5664076393846953,0.15212715385313383,0.9853540991807129,0.9025993264542023,0.5441612470909691,0.07057666624768147,0.660700720446419,0.35581970756230763,0.9681916495720669,0.569966938580383,0.7774206211742488,0.33650049919733693
7,3.895050358130785,0.473056570023105,0.8631952581847318,0.45502272854186515,0.7028477320503899,0.016646896922100973,0.936155803190941,0.4678702009202627,0.9741050237414934,0.8158809486078448,0.8046398959728623,0.37918837627799395,0.8997449519964481,0.2511879259840278,0.6981450200173326,0.0321133478240392,0.7473597768082622,0.07706220461651837,0.8784505760461189,0.4893998307450998,0.9347075642903708,0.6707412729752514,0.6829262626903758,0.17403712096208077,0.593402303362328,0.07808139993295114,0.8963780481590288,0.3878551299614926,0.5760411146307858,0.0481964099152967,0.9707613432204704,0.8790485172850309,0.9176288646338157,0.3406996307806696,0.6881791835307051,0.011768429619727124,0.8128856120804548,0.3652537459840591,0.6220217249128623,0.06667135094865635,0.8200498391805312,0.21328549805108615,0.826158216834981,0.14316790901901355,0.45807863327813925,0.1291151024903947,0.9928527888720375,0.9618121095541113,0.5545277534211274,0.06816213849278141,0.6408062266926297,0.3895588490962999,0.9831138743278377,0.6643582934501913,0.8164989043613486,0.07836179293364,0.7885800850551262,0.3205387837737958,0.445032421554744,0.8586747017332091,0.44408376230069196,0.9244428506919542,0.42245645191213016,0.9693116215326102,0.7822448130403127,0.7585831989380026,0.07652427056867366,0.8676595416312987,0.4513562922363841,0.6788535076861955,0.15667457504781848,0.5561616433709456,0.04786679992266783,0.871723180022891,0.32433347410237173,0.57209701945502,0.04007630800009743,0.9637733355198107,0.8549544003307434,0.9225557993493229,0.36977349262447706,0.7984380362313287,0.28409196259469904,0.6330615543294913,0.07054415837593105,0.4480594048159927,0.12288969631191446,0.9907992832554973,0.94091625224698,0.5520916177562674,0.07771667032992269,0.630206156017706,0.35139873766771146,0.9667804929442169,0.5943789244040697,0.7757373858489868,0.3562378356676443
8,3.8624078943780873,0.4385232665026956,0.8934009053099853,0.5263104144594813,0.7102164811494223,0.021258986744642723,0.9042758441167392,0.3369400841479128,0.9640184386512727,0.8018978523723814,0.8926083022682864,0.3266118537785961,0.9101222039923755,0.21656218088004264,0.7034536112019003,0.034409162756018435,0.7476089414849029,0.073081193667413,0.9226734852215114,0.586307354665598,0.9721630931070461,0.7179585485092361,0.6534610648685231,0.1784082472434697,0.6223335621483065,0.07074923512204404,0.9022535869982466,0.3309356593599245,0.5978931169298045,0.04845208026974754,0.9661466317126927,0.8587080844336175,0.8973293933320096,0.320860466256568,0.6927413292471004,0.013258562648810176,0.8331923418610847,0.39302038895955915,0.6470627882670582,0.09769146505203614,0.8286394996137368,0.2774361058914266,0.9145812123282251,0.23128472183562196,0.4727027278942436,0.11582369550107628,0.9911487671391905,0.9550641862740187,0.5429774197545653,0.06076086378073671,0.657118104453109,0.3999442586567891,0.9772556947507738,0.6840559994387067,0.8181349610601292,0.07324685993714705,0.8013153151430459,0.32411253750528224,0.43034955653275697,0.8876377026293811,0.5012946991182591,0.8894421538800777,0.31589235150851575,0.9595052429164851,0.7725877808919253,0.7598408466722986,0.07493480364647342,0.9026401202853069,0.526025487454542,0.6491889287460653,0.1535324735052208,0.5757140274924133,0.05603641682072713,0.881372336369383,0.26730278849117795,0.5908103747676011,0.03749971955490534,0.9604037292954039,0.847201013387127,0.903912007263373,0.3476107820075967,0.8126171379116175,0.3164916291046779,0.6517541146519813,0.08606490864684496,0.4644306565197638,0.10454742096302119,0.9882686050490447,0.9335399714352166,0.5383050041499228,0.0683408672466432,0.6438800586956972,0.36397665888621367,0.9599152810228252,0.6085851405045336,0.7788687960177022,0.35452582850964576
9,3.822010790107295,0.43246130530918486,0.8482115953369412,0.4767303747322579,0.6780873764961249,0.019012678854620695,0.9204122674447666,0.46456948131820314,0.9712410861022174,0.8393186479477934,0.7920711264318618,0.36248413007243646,0.9086912020953479,0.29569858961298756,0.6673545406556387,0.030289072768729185,0.6877426176025173,0.05396405571160698,0.8841084662996777,0.49376528970915945,0.9425067760508131,0.6465108263332278,0.6621643608429346,0.1835340982006891,0.5812486755494455,0.06577721154178161,0.8679199296087933,0.3940565293205515,0.5538010163105773,0.0428969731055617,0.971562295829972,0.8850592566182407,0.8538819508690733,0.29953807376375635,0.6317039479893625,0.01043370001672805,0.7897206751122624,0.35590487767518353,0.6092974947250496,0.11123694781803523,0.6888509082958617,0.20116559789320906,0.8136569791707625,0.19413868063967607,0.4566476097886677,0.14296615771342644,0.9848007960784003,0.9152317580117902,0.526608789566241,0.0714347128312442,0.6400075512036023,0.37823251013728076,0.9777418542599778,0.6265871973683917,0.7905113950577757,0.05845238924265203,0.7666871586953581,0.3192218451466378,0.4060520235522099,0.8347102681810145,0.43414041487709415,0.9019220000065497,0.4045570588766496,0.9678887566798048,0.8052877511869609,0.6951848072935523,0.06160737567527,0.87058580117138,0.44184218404959813,0.6544036131230708,0.15493781721313135,0.5395522550105314,0.04066269521293996,0.8363835871077293,0.2871388179608142,0.5393963050722209,0.03317406972430531,0.9635849115288961,0.8607966343121876,0.8716433381251419,0.3223273788705246,0.7757434769281005,0.30162577517895356,0.6142578739121675,0.09389625580489006,0.4479062682546894,0.13273232795276124,0.9811477450887418,0.8896767394723312,0.5208956697081649,0.07163438431960917,0.6310590102672403,0.34657329778680096,0.9640375068946498,0.5648549222534234,0.7561279552418692,0.34708143892934695
10,3.7886900992124692,0.4429206727783161,0.8731636356244582,0.4930566362603155,0.6846604220314216,0.015569089083344959,0.9417416760172012,0.5066708239486513,0.9763288663899398,0.8421067130085212,0.8594819940699869,0.45005698680204964,0.9138870723435607,0.24432662953762763,0.6671991898561666,0.03295360767764617,0.7329625728812774,0.08277090106786221,0.9455457280359423,0.6157421095315676,0.9611614330324822,0.7222756044072752,0.7523867933599367,0.24549835119227076,0.6010868085194294,0.05079656149894728,0.8889375169824492,0.3551311430653963,0.6336319608423763,0.07773430881461736,0.9712798943826161,0.8755007596219949,0.921463040592687,0.3490976943328576,0.626489115408318,0.008896988501376052,0.7841561447496757,0.23425296677403373,0.6144834871566774,0.11043931104803563,0.906450431775535,0.2979921833254977,0.9106819186377308,0.18130127506895197,0.5214045030402411,0.14915194881898128,0.990672607284085,0.9528087715871052,0.5773847263099984,0.08586513887602812,0.6948546487239311,0.3977290267602982,0.9835867143984335,0.7153819022387233,0.8449333677063107,0.09573328081864967,0.8066672692649212,0.3403274338395788,0.4179026608034583,0.8587697447433718,0.44645486230704423,0.9251175574396767,0.4434864866151915,0.9714261051558001,0.8097738803957214,0.747497321235925,0.08853251266060844,0.9283555021193817,0.5715173770097222,0.7428928956174934,0.2051525180645427,0.5612691546344077,0.03594263837652216,0.8671995684804945,0.28762092213614227,0.6086279914994384,0.06251079241613054,0.9625678975506686,0.8491668169094786,0.921681924793826,0.3694293511070537,0.7581063599742777,0.19345545901636885,0.6151143221503097,0.10674439343332906,0.5115196826117998,0.138239298840143,0.9871471250637078,0.9304661985858931,0.5588983080519839,0.08232075300738625,0.6800914821835303,0.3656355044501487,0.9704329530172225,0.6455856095007022,0.7875953275735176,0.36844640971289605
11,3.7661716180606963,0.5081612879183126,0.8963800096940922,0.49605566790959993,0.6780022318071933,0.014360147750648063,0.9379215669958563,0.49204045462666396,0.9712785429231555,0.8123536753160787,0.8739219634081296,0.450489457740325,0.9125937741947461,0.2649876927870154,0.6425397127946342,0.021481841738761283,0.7166504945301202,0.06778084456480189,0.9468294490622446,0.6338162257109837,0.9648152178704223,0.7353284048423876,0.6488390960128645,0.18637798470806888,0.665047135571463,0.10085460657261681,0.8847335233596848,0.325433395879768,0.6434498996364623,0.0769284509720568,0.970673702903983,0.8775594474030871,0.7865967126444185,0.2561940101462337,0.742454404636986,0.01543784952017205,0.8137602115257476,0.4028189930193737,0.6427453161190512,0.1037324170982572,0.9019217153073558,0.3097009907381712,0.9254142089063501,0.2826268955387213,0.467973570015401,0.1333792042530511,0.9871594773713791,0.9507554797417023,0.5481066097744769,0.06706179912186414,0.6495732734457729,0.4001610214045779,0.9743186345535003,0.6681006802657219,0.8232286204932244,0.09595993337595995,0.8006270027984711,0.3422880582498767,0.47290750540359244,0.8834780011095464,0.45132137101932124,0.9190522921835903,0.43677001318650094,0.9669277678030744,0.77628744362247,0.717186511462916,0.05547099193791829,0.9286916310796798,0.5858293726615098,0.6463496302069007,0.16753694295648774,0.5955353438253576,0.05886327166089876,0.8526608880597095,0.23770389879705023,0.6303892132564404,0.05051498814374851,0.9624084071257871,0.8524833291346099,0.7951778013164863,0.2698876593234435,0.7821653416720254,0.30666411025748663,0.6404376185263186,0.08383195064823278,0.4543466443824236,0.1180296422182847,0.9800228266819286,0.9236972407649282,0.5413827662661466,0.06918559807663184,0.6338541990588138,0.36148773421499314,0.9533757444672373,0.6137813243849564,0.7713023682491323,0.35663038238941513
12,3.731323317140885,0.5386698467118829,0.9111712095152521,0.565765010284313,0.7588020007446271,0.02382886736538436,0.9603895027414026,0.5816457152538658,0.982302258730934,0.8694304945172762,0.8793791098817869,0.4309047082151837,0.9292171657402144,0.3315972289343367,0.736086576205842,0.038766615285496415,0.7781293795303822,0.08937397757098851,0.9708280259785343,0.6957586984990611,0.967950304444194,0.7131198506752329,0.7365489724178671,0.2645261848845636,0.6179217684423772,0.1160558898629068,0.9380855858381769,0.4793584377608132,0.7245452635731168,0.10948739210465357,0.971726937328739,0.8800948248861213,0.8789627361106574,0.2802478635946999,0.7557021269508153,0.01953619770769586,0.8223904035058471,0.45759037807537656,0.6816436923798204,0.12452305725701367,0.8812013682993456,0.3477928768234246,0.9223429658745773,0.269438987398461,0.5017477707615479,0.14274577505574718,0.9877772012393353,0.9353910979759649,0.5881395963576215,0.09126314519585527,0.6704669035650391,0.4073336134089134,0.9777363281099171,0.696401024271142,0.8346794789167522,0.061842082962842125,0.8283657271549897,0.3712525924380493,0.5025713646865917,0.8908325865232792,0.5125115968168048,0.9451933807602053,0.519933393579037,0.9771949600008498,0.832955331997074,0.7701925784521315,0.08616403578337244,0.9586900035078723,0.6332961019945716,0.7269669134500779,0.20869465086130387,0.5646782702186259,0.06907661075418824,0.9214947884264438,0.3664144703863545,0.6997033341298725,0.07488811769606865,0.9626721590570635,0.8556370046933072,0.8681614587273965,0.29042555177693813,0.7944713821149048,0.36064974846193343,0.666075238250467,0.10510740722627232,0.4909267702992146,0.12434554926849778,0.9830283398025569,0.8984997668661068,0.576329234096659,0.08295355198930707,0.653437758855506,0.35996402905729863,0.9575549867684702,0.6035350697595473,0.800422452413422,0.3880584438315547
13,3.7023566904335965,0.4897766515117637,0.8801366570157243,0.5175570330903553,0.6981386396139555,0.01498130689285734,0.9466211285333552,0.4429428817524778,0.9705963896453936,0.8164236410481569,0.8799269345096206,0.39104242837955605,0.9443287137554411,0.36294824938365544,0.7332455252035269,0.0432219129397817,0.7723499130239743,0.11540381015340297,0.9272267134930501,0.4982282870991968,0.9733943422312574,0.6940316221656787,0.7099369891383744,0.22256673106000546,0.6666098072413835,0.1198697553492915,0.9062027332077639,0.39268381265717633,0.6405709357684284,0.0771491472717384,0.973368182231332,0.8835082093213494,0.8429488256261344,0.29425962352565954,0.6652541958837865,0.014313121434658333,0.8210198588548322,0.429659801755295,0.6495599950342528,0.10651338960529802,0.8711066330920152,0.3474611748116758,0.902762170443773,0.3118979245347505,0.5616418986259151,0.15110830390708224,0.9896739305433352,0.9567100001464827,0.5962241722117477,0.0754817977356117,0.7310490670526016,0.44313503916463653,0.9740738013089749,0.6402623021159188,0.8032837558576128,0.08264815879841579,0.8159722929313913,0.3498522024481542,0.44629947082060073,0.8573356865470552,0.4349941685778512,0.9194392683875556,0.3664283926250773,0.9659331807026679,0.7796818244382677,0.7622464316668311,0.0988285470691846,0.910539319338013,0.42339300739632746,0.69649823507839,0.17906491944116665,0.5920910161676236,0.05757496570275515,0.8873791622103833,0.29624051256759826,0.6118404814956749,0.05278148378281388,0.9634303156844711,0.854741187175591,0.8397934478323371,0.3251156749868118,0.7874489382827936,0.3044818105737452,0.6382065537541052,0.10074471022466676,0.5492816576880639,0.12751695044272823,0.9861209780867182,0.9277591276851269,0.5885183191829138,0.07270378963699775,0.7077197415658736,0.3820238245889869,0.9537032790644348,0.5631740144602148,0.7898625562631059,0.352624939520884
14,3.6752613828758616,0.4770813147499441,0.8793216834704347,0.5237982205683032,0.7195017635632587,0.022173338178332426,0.9567143691270008,0.48267003560059174,0.9804060966849973,0.8759215839369245,0.8549140789305489,0.43795469963067724,0.9237392526823043,0.3148090005696284,0.7021004974539405,0.042560812736101086,0.7442965181552549,0.11841920558447991,0.9610122769429339,0.6641516253580083,0.971868862513616,0.7308387429727784,0.7313748047371942,0.2576223853371542,0.6440328905090618,0.11024433090171619,0.9211463047469401,0.4266735119907077,0.5972671014114271,0.07897842873309387,0.972013584065691,0.8711668859624064,0.8436485357561531,0.3129692999561745,0.763607266387959,0.020625975893724557,0.8494378503036342,0.45812645916432826,0.6204796384714099,0.11983586821855158,0.8084019526340085,0.2807412479912571,0.8830015287817925,0.2676217086814913,0.5507075378004149,0.15118863319509013,0.9917073272631077,0.9600983478214239,0.6006056979123322,0.09864917591900485,0.6699243233344898,0.42346908380767706,0.9798199877872085,0.6626904839612305,0.8427396787512631,0.08486619548211546,0.8134737559325326,0.36292093659825825,0.43176567041812625,0.8623833299803085,0.44077910687684474,0.9395571187429296,0.42130299718186487,0.9741605224855779,0.8314421443119064,0.7432613998325087,0.09223178921421575,0.9469355990390923,0.5781754854414436,0.7198866458085021,0.2186146726536719,0.5701838246297891,0.052344489841052305,0.9004753646886546,0.3169763134602749,0.5636948394564626,0.053529111552945,0.9578127779236509,0.8328447351081372,0.8555375652568662,0.32247761852386525,0.8126857546971782,0.3212318877341579,0.6082593138745898,0.09270081419809911,0.5351449016680729,0.13196379403169617,0.9862447889890652,0.9301169467705434,0.5893638096724378,0.09977566277048808,0.6501225380841515,0.3629313461349702,0.9600410890138018,0.5940594693284441,0.7875417324357578,0.37186102139636784
15,3.6548271381361306,0.5530545824948448,0.869585981673198,0.5375422237870643,0.7194284934990319,0.020524653677632405,0.9503986753206988,0.5915771854462135,0.9799148376653103,0.871112695189676,0.8498143383738306,0.40369778319944366,0.9281051208324143,0.3663081134077203,0.7363788676764663,0.0473297026497714,0.7742454662146595,0.11773022851342112,0.8856610546177713,0.5330810385787559,0.9606452860245528,0.7097001778223586,0.7463739150356907,0.2772209383596112,0.6542547846901184,0.12258484227084741,0.9064424402940863,0.43300653625545726,0.6520390543645846,0.10150665843830514,0.976041494903512,0.8960790438389541,0.8857586514407889,0.28505920344920943,0.7305505310437105,0.023390673520132375,0.8550960634359391,0.43996867178723054,0.6543712908607828,0.1273933204325286,0.8047371941111754,0.2172572463947272,0.9202572944020624,0.3292309363080069,0.5700966873928838,0.16679746675134025,0.9922857831593568,0.958101832127431,0.6206024782532071,0.10676384670768932,0.6956651547944829,0.42134844501418267,0.977204471590594,0.6425941258478629,0.8393242383544215,0.11070298785670034,0.8198251722231603,0.3650966880604546,0.5122605649549079,0.851699130042492,0.45977141297290103,0.9320209982348646,0.5175444381460332,0.974344715118935,0.8278385885392423,0.7689128057722338,0.10010607178063637,0.872545626768468,0.49189952726539515,0.7256334330399438,0.214868971175151,0.5935887030278275,0.06843844804749055,0.8867861623601072,0.31659971851806845,0.6058529438174901,0.05515775812518634,0.9663519983704171,0.8678832373668861,0.8896201861239312,0.31315736804030536,0.8302550878461451,0.334754537112138,0.6505278364928231,0.10529838397917736,0.5531698254040371,0.1432896179314378,0.9866511050365664,0.9288924643369748,0.6112289340150611,0.08512514581878669,0.6730504096170089,0.38126026900037324,0.9566461324888291,0.5793968037774192,0.7960492240876212,0.3772934867740891
16,3.621228672282858,0.5161859332687386,0.8956590856070262,0.5494519221838681,0.6860763025011383,0.014531089823372293,0.9280507838036272,0.41650143795599737,0.9791450760259834,0.8732261058419952,0.8697433485129791,0.42709588662749437,0.9426797124204833,0.3885762859586999,0.7466210970988216,0.061451940743762486,0.7806432528261622,0.1461633674304365,0.951927023087497,0.6279530325657047,0.9626870199457642,0.7313668432574353,0.6857373760367091,0.2117141805847829,0.6868142632799547,0.140939128788062,0.8844317399491939,0.3492934733710423,0.6644936257953414,0.1140264276215698,0.979851957224797,0.9117682514618648,0.8650888782464986,0.34593982101782983,0.6537008166913728,0.015708397595673187,0.8467818358952035,0.4884971199011306,0.685311652652918,0.1693528067985326,0.8532191760893535,0.32741201033715206,0.8966720926497669,0.28790034773251755,0.5488926673555776,0.15345318979152134,0.9896411685605767,0.9605230670930595,0.6273971178339601,0.09430239307801994,0.693613737890772,0.42455367953958334,0.9493257175900688,0.5712231231769559,0.7746720776385765,0.10599895742395182,0.8158843927114859,0.36699719584081536,0.47730491167921296,0.8763641019075662,0.4720318538856308,0.9079344130824518,0.3756766047372153,0.9740881468654051,0.8319409658548145,0.7535621162419043,0.1247590367962863,0.927399008832357,0.5582527088676821,0.668414110968491,0.15889530053749326,0.6063833033737275,0.06074008778729746,0.8555967643898498,0.2505162631703993,0.6130652218394363,0.05446162621316309,0.9681740146237566,0.8749525692265928,0.849907316335023,0.3365905549856412,0.80829198972435,0.34053165121428947,0.6722639537535063,0.12902595042972598,0.5309584523268644,0.12229847565956267,0.9819739644944162,0.9275451813306411,0.6114878665195437,0.08606182522636827,0.6646261304014328,0.3554493395101009,0.9189653997037625,0.49990732133210913,0.7883031264102134,0.3644242953758341
17,3.597616168247928,0.5365580979354551,0.8988995047061771,0.528594064625371,0.7105852167663478,0.01958050987800764,0.9262307876371483,0.4450884677657932,0.9625037987986946,0.8276583660256542,0.7907633653262027,0.3294295073788043,0.9380623742965098,0.40403314648903144,0.7055869768716013,0.043047671648036114,0.7577967373730355,0.1097676235016265,0.9434798449481095,0.5561767658561964,0.9462016382581069,0.659476422174456,0.729400585245481,0.28262158440106255,0.6663526173334072,0.13240552023858196,0.8671432869128352,0.3664862694363449,0.6940168143072403,0.1131450599412854,0.974734960192617,0.8809402588432365,0.8272256786821416,0.2540842297883771,0.6831919252485885,0.0309256057185368,0.8350697357968198,0.4592915588696114,0.6764975207096857,0.1489866353568524,0.9255466353428813,0.3495229711219354,0.8782853174887046,0.2815015223156448,0.5437979563207561,0.17165842928901023,0.9823601696681002,0.9356865238499826,0.6299677879331612,0.11908240444056194,0.6993018968134999,0.42927111859757355,0.9559730030565986,0.5405348594577432,0.7618872427743981,0.06493909002621424,0.8115134584744019,0.3512568958161309,0.48267123798166506,0.8777526808956844,0.42832761925393137,0.8983762645862012,0.3734351155070213,0.9578179480914084,0.7875225333310178,0.7511810332532447,0.10850496039347235,0.9215299781541448,0.47629798864133244,0.7092138840499985,0.21524877191655026,0.5939786767420147,0.07309241354205984,0.8299702017128566,0.2495763854633904,0.6402975392827124,0.06961181639497004,0.9613210812843325,0.8444083696360256,0.8252379511235529,0.2573520431678007,0.7824144029027712,0.3031422609723062,0.6697416666345819,0.12010764517207462,0.5179160446550268,0.1343897413005386,0.9727013181909688,0.8935558626518706,0.6136220172326,0.10116676222980008,0.6748797828836064,0.3770473537620471,0.9333112291378743,0.4984028609017001,0.7850702056007545,0.35062169467988386
18,3.5708107296237204,0.5311669275297508,0.8970200215121794,0.5337120407669532,0.7215681556789226,0.017339830765726042,0.9564639295991851,0.5485931833458585,0.9653999496590743,0.8383518610844194,0.8373082540936951,0.4274319074683073,0.9403502975056094,0.39597977959323155,0.7264080649126397,0.046596569540317094,0.7613345344598567,0.1321187194912725,0.9201007718365093,0.5790931063672632,0.9474806537596254,0.6873347970778141,0.7139375584129154,0.23202156069215762,0.6424748671323725,0.12665448300803483,0.9229984123807933,0.4158396827487848,0.6417388570248466,0.10614589452432095,0.9804239990358528,0.9109771180591986,0.8483753827456888,0.2874221394155574,0.7265880511001183,0.02034824184719598,0.86282426307811,0.498987376479447,0.6184590093519261,0.10833736713812475,0.8039739570494523,0.2580864471057315,0.8914659676686574,0.3386712394646018,0.49026997648367954,0.15550214753925226,0.989943871075205,0.9386984362782645,0.5621635556621324,0.08184144487795614,0.6763246605233666,0.42468671385429707,0.9781048798101327,0.6679313781584549,0.8260092557557412,0.10416767613869651,0.809241153974381,0.36603226454930526,0.4722367146157859,0.8768357200773024,0.4396631630261081,0.9298996336188625,0.44501011043908045,0.9583119349389655,0.7898404208804741,0.7542265960131214,0.10862601179042043,0.8999456128178523,0.4862392727517435,0.6895745469270499,0.17192464293110565,0.5650786608378947,0.05484442242847634,0.9021144670165943,0.2935307592048705,0.5780811223646124,0.05303624894033081,0.9660948766864258,0.8572545099932389,0.8399581977755921,0.3097736232610075,0.8185948156946893,0.327805341765111,0.6139949930718385,0.0818097077443875,0.47360051437658207,0.11656088181030227,0.9855058333929512,0.8960139993577663,0.5363139082268509,0.0700891483629219,0.6520082004522958,0.34658605392921016,0.955393940145144,0.6044343137801239,0.7775296430241458,0.35850236846648215
19,3.540245872915601,0.5678368239298403,0.8619041736760513,0.5262720370316877,0.6859623268456745,0.016786212509707188,0.9437449304422135,0.5050122667421589,0.9791556194493523,0.865322122200609,0.8280923965339277,0.3206603471530202,0.9384560415535235,0.4243457360673915,0.60935014824449,0.027444905326310054,0.6794589892089591,0.047529709120308704,0.9407655684156941,0.6357492901124281,0.9558323089717949,0.7124995190221535,0.722383437446192,0.2632315057318167,0.6538323221339203,0.12254347641380997,0.8864898701473481,0.3867986775015595,0.7220007173507086,0.14784176165817559,0.9744033392961648,0.8847581164924753,0.9010585934637032,0.3276494968823041,0.7080258942798292,0.042441419424505744,0.845662892770695,0.5148520354244229,0.6173879406782776,0.1335918292046252,0.8696214222878886,0.3098113415740388,0.9102990717873671,0.33170463141253237,0.4694962777229751,0.15070668782526794,0.9906741571790288,0.9573054023366556,0.5308796556048028,0.08970619179983871,0.6603605366011644,0.40730697960910534,0.9668323130147423,0.6319108584742394,0.8292402463211906,0.11878851911580648,0.8030137478306548,0.36676189170988716,0.5094283371841694,0.8368503514579562,0.4291896680896145,0.9184391705064094,0.41479204955701854,0.9745542192994572,0.8233599266122964,0.6643088057283496,0.042037809294268855,0.9154255729608766,0.5364654995041356,0.70141957764127,0.18964738732590136,0.579701061233209,0.046344399747136764,0.8455934876145398,0.28753215463463255,0.6378819155998849,0.07785717530199984,0.9617390645699997,0.8448161796221586,0.9012646591510933,0.3308128608651076,0.7917483681907992,0.3323812394588978,0.6004174864313702,0.10384403120430927,0.4426424677094827,0.11210868279119993,0.985465237836168,0.9263121569486111,0.5141644249747653,0.06955027322341963,0.6327118773158977,0.35388578874318255,0.9410152642897425,0.5517338649042268,0.7691857229172929,0.35959284154600657
20,3.5074024314048264,0.5295272167151127,0.8553248450087231,0.5004077908183504,0.732636705968736,0.0294188816291752,0.9308170873544592,0.45811048761205764,0.9818949742462902,0.8961826929672814,0.9168673108543559,0.49081676281976244,0.9562989448844003,0.48462973430688033,0.7421160773318668,0.04230147009196086,0.797142712603661,0.11216146840416692,0.9472353612165367,0.6496774286489425,0.9813166574649927,0.7890223506551226,0.7413566003018516,0.29611408084848095,0.7460170700352238,0.19824653781630117,0.9338813364334113,0.4988738329060913,0.7542205817916394,0.1476282851547662,0.9812850593653724,0.9179076779006359,0.9324462306360435,0.4097225009586189,0.7752915604856843,0.03340999963772621,0.9035595021629078,0.5895357857897775,0.6898590449074158,0.15978116734825246,0.8777905807088646,0.33436804761274325,0.9414203754350775,0.40421236129330546,0.6204194456128662,0.191703929625323,0.9934447386712915,0.9663507710529705,0.72038434984791,0.13816526836586526,0.7517029956485904,0.4841378240448624,0.978833941953745,0.7216894956473523,0.8506906057821446,0.1414875119837033,0.8531205443227429,0.41059496836816584,0.4756652008645748,0.8268507782065586,0.4037863324575408,0.8964146390896545,0.37610951269493853,0.9747024764414035,0.8419515139932648,0.7813067980266744,0.09621666104956718,0.9184268086349591,0.5541448421609554,0.7191112932061978,0.22583242805099443,0.646016546153345,0.07194448360688166,0.9111619581037299,0.3375207455116492,0.6827087124868069,0.07394937336237878,0.964945240405824,0.8647009317105772,0.912381402738897,0.4029570855061342,0.8425291626544762,0.37111023189881237,0.6638698412576186,0.12594231549420715,0.5852435581229312,0.13926649602162833,0.9874547528690023,0.9307182510494907,0.6869806135749992,0.10148893455550327,0.7123214995524815,0.39774922573295773,0.9584632213043127,0.621049414546097,0.8150494057127707,0.38535770996686547
21,3.4896073667328595,0.54801122953467,0.908396423670021,0.5942563541804697,0.7045521814567106,0.018513028068456054,0.9522777873792575,0.5205700109189058,0.9836923157411743,0.8997422491929428,0.7743371621793236,0.2893114914772251,0.9439402119638226,0.4408525838600578,0.6873398395545043,0.04907893372272738,0.7491978742173478,0.1268088515750448,0.9259806937402039,0.6132681548194294,0.9307151269856706,0.6734465452858848,0.7112236852822493,0.28985353618203785,0.6795012616125164,0.1800796813242282,0.8986165243436584,0.49405098937906994,0.698863985279286,0.16926388726135128,0.9822542031735328,0.9230428613554155,0.8752230326039435,0.31443936529155836,0.7482797292870744,0.06195573462098832,0.8482386093106111,0.5708187452154783,0.6694173084031864,0.1940921506114108,0.9233221585867202,0.35188499675262114,0.8906671708914641,0.3643263119189608,0.5500639054424358,0.16704617984167108,0.9859002070659646,0.954093883684534,0.6296030891335989,0.12706280250350785,0.6691225035705565,0.42586927143591835,0.9828013280330469,0.6964856863475394,0.8450464243094566,0.1471887241172038,0.8203175830821235,0.3947186300349866,0.48505627189386596,0.881204162627796,0.4817720924288903,0.9297529938349433,0.40339707903360966,0.9766992998820742,0.8551625624372439,0.7330859362143305,0.10129927170686956,0.8970459740174841,0.504012316462646,0.6817287636380306,0.20468965519273571,0.5871563374983347,0.06322053946733373,0.866055287811289,0.3267233330178615,0.6151287817415553,0.06531655371286056,0.9650094427218143,0.8660673088693376,0.8643633199667095,0.3308416833718847,0.7972476026815315,0.3622015887770046,0.6462881610362254,0.15370436168931512,0.516361110209645,0.11610873196286,0.9766587194763837,0.9130273495388939,0.5975325216224481,0.10257376525164966,0.6329859768480086,0.3436534594787074,0.9575766778013969,0.5795264489487488,0.7845489483127779,0.37629433896380293
22,3.464453688233758,0.55762589749323,0.9072566411311322,0.5783440086523645,0.7313260896394158,0.021645403133438226,0.9536403226005885,0.4984669405421855,0.9833553552689805,0.9076660203273993,0.8305182495094061,0.3237442579522526,0.9522573251758736,0.48557520434390783,0.7843921448155422,0.07564914217188917,0.799299742424187,0.15691751758292172,0.9117108644253601,0.5179829877659959,0.9506399879872277,0.7391072619657191,0.7682616116862923,0.338091922813952,0.7387568898817768,0.21729458517086128,0.9356467929954296,0.48883924683819235,0.7178859625447866,0.16860000874101222,0.9823524786380415,0.9197110117106725,0.885797189559429,0.3480722514927067,0.7907723868374446,0.03606854023460242,0.8737246381507345,0.5866467283938347,0.7069053130489804,0.21984862702311672,0.8374800026439232,0.28347860145789955,0.9330298114818287,0.40558091159256654,0.5782912603149005,0.2071056273865377,0.9874836791005168,0.9497645270498036,0.6863130846202543,0.15780126666401895,0.754950730052678,0.5031847684166147,0.976844350811625,0.6041509452779681,0.8248960286737159,0.11753083389100474,0.8438440345933359,0.40210626476272,0.4929566967280316,0.8808628247099635,0.4527172573186977,0.9318780881228689,0.4201895300303296,0.9787804243203332,0.864491210586271,0.7898254506357723,0.10516825621602786,0.8854767353268337,0.3942224709646494,0.7366555499526297,0.22477483337572735,0.6334288167393503,0.07236985796485149,0.9061575503585334,0.3295700727609383,0.6233015682662711,0.07877223509306674,0.9651757196039958,0.8630668625972834,0.8650298857531967,0.3657654504361886,0.8175093377137012,0.35084032197599696,0.6815595400505056,0.17391582653439047,0.5395960440059713,0.1514754092120683,0.9780208889650519,0.9070242660714228,0.6451115777342722,0.12481605335603757,0.7125228378720647,0.3971014003112737,0.9501679505692345,0.5240656434135111,0.8067255994833639,0.37779705323437407
23,3.4347316785372963,0.5599363990956746,0.9142580516679373,0.6208882822179507,0.7548866932644432,0.025867278242317656,0.927729779777141,0.49695498377277,0.9802580567230852,0.874678098745617,0.8403686834346443,0.341754992687339,0.9487561475337549,0.4767247298873958,0.7626831362856388,0.05949251889132658,0.7800034782283627,0.13654470612114164,0.9529551578412959,0.617584741040457,0.9584979643976695,0.7397995388561289,0.7301043494263589,0.23377004394159423,0.753072380968479,0.25585817902715796,0.9453105518142519,0.5113845442120405,0.7204220267643385,0.18449633702875118,0.9842436674569708,0.9290557186650549,0.8941202261098612,0.36246842241012384,0.7383270873931945,0.051971165142929286,0.8634781501180365,0.5623680845144486,0.6984641207425596,0.14382810945013366,0.9179930872616718,0.35560786180322335,0.9151718564868527,0.40750151959652664,0.5285167421533994,0.16019110986624074,0.9868943947635851,0.951976014626766,0.6489751071122521,0.08862386542740092,0.6955357278371013,0.4412659912579128,0.9814883006089605,0.7051859864093343,0.79817142690822,0.12311141687623275,0.8378031982622247,0.4021834903969747,0.4872922411865544,0.8801592381927806,0.4752268253387217,0.8952584407933686,0.39715498283648837,0.9730834404581046,0.8246441171856458,0.7476494530932869,0.09372112506012724,0.9264645871712971,0.49709036971561854,0.6999205403257847,0.15778637710518786,0.6443530691136711,0.07331430269399433,0.9235298195486628,0.35994907376287266,0.6423774143356445,0.07105237191807416,0.9658923764375313,0.8633488997421748,0.8710399485511084,0.3426957637178367,0.7946638006577217,0.3136280012217389,0.6676843941184851,0.10296980117733259,0.497985006815084,0.11019386372461878,0.9769238661389243,0.9139866718061533,0.6223381888596665,0.07283320688662365,0.6580067078221571,0.3540840571374848,0.9544565776507994,0.5881552952442646,0.7967659372268932,0.3673241725708311
24,3.4019067416395217,0.5578494944224989,0.894114632780699,0.5925182632947301,0.7249381119450428,0.02687571999759067,0.9377278469059701,0.5157127793287282,0.9763254515399344,0.8534791167204914,0.7841002926700091,0.4699656881508938,0.9627539708150364,0.5274642647014022,0.7156410854660752,0.045513776298699266,0.7440934115609648,0.08440758365962248,0.9042010641480274,0.6243782192871157,0.9267131063907297,0.7008460167928772,0.7544301400960617,0.3150841556671585,0.7330379867287315,0.23402681235727182,0.895521768720734,0.4289976520000792,0.7323037830005911,0.21847970792986934,0.9779953645264351,0.9053779132008377,0.8672236892193436,0.30400316936594823,0.8044798103454976,0.1515659550447235,0.8660173581860486,0.5015592807297973,0.7088096701685048,0.17989765670071306,0.9184541040958011,0.4371165051434281,0.854092653556822,0.32024966354542006,0.5846943008376211,0.1907246326993456,0.9905696686761317,0.9540540224096461,0.7028537056975844,0.130378845922772,0.7194552232264622,0.4734527896295574,0.9636302278707978,0.6859273717780597,0.8531683707624563,0.12126895239715883,0.8332350666643746,0.4071602412871829,0.49705597376462696,0.8613603526162738,0.44222985484892513,0.9016379991347161,0.4196599964174213,0.9718444229604682,0.8110550933121455,0.706646991921652,0.06369527543520864,0.8558704291094754,0.5018328694284979,0.7267324501084931,0.22203940265031008,0.6294472115265548,0.06580219134917939,0.8547834666138762,0.27134909570442833,0.6111648134454508,0.06890341777190867,0.957327919395077,0.8396953254352075,0.8354781720511462,0.2608556930153153,0.7918266683770536,0.28629573808377967,0.6764330428168506,0.13389053712054785,0.5435060767832803,0.12207787008419645,0.9815393369281474,0.9116103295460638,0.6549601830834544,0.09795845448222643,0.6766723812047581,0.37939503383265827,0.9336703706687655,0.5460481393460025,0.7872723493747497,0.35802190654800126
25,3.3695105465979984,0.5937243795185213,0.8778571880637216,0.5495639245871926,0.7161458079463539,0.027277994778615797,0.953400657047313,0.6166216737119433,0.9573519737980987,0.8405959070233083,0.8121415167126692,0.3670350302148716,0.9643370389738144,0.6063049942355391,0.7503061297504114,0.060866041150477,0.7568512565709463,0.11581775441099697,0.9526330491143047,0.6674286841306716,0.942285824397076,0.691367457873362,0.7232215599962313,0.330130842347888,0.6826160249987401,0.21730048156477974,0.9111479142059946,0.5009025761614723,0.7311277894999088,0.22343059228250228,0.9869736358108679,0.9401900729815693,0.8812731310769457,0.3751027547969179,0.7290966427377761,0.07882494592232367,0.866391639255312,0.5994568909239723,0.6423679378255159,0.18402399073603504,0.9079225726631699,0.4661657602408793,0.9283864388006429,0.4335531505797871,0.5129274209471573,0.18412696888710067,0.9851835219596137,0.9418060991982729,0.6065976795683078,0.13675890329742912,0.687034935909938,0.4639036109804159,0.9823531785175311,0.7158726269888047,0.8445436779362907,0.16468255121072434,0.8256472645957277,0.42589304745251305,0.5103972572110009,0.8460679993415878,0.4018042727379124,0.9141375852321,0.4849353623303177,0.9559939762236128,0.794759816681983,0.7417525151126179,0.08230109509348546,0.9273334678972414,0.532771262165101,0.6783841989853611,0.17728327663678645,0.5853094642424328,0.050472987429704894,0.8779174288355512,0.32358301601088013,0.6331529752701568,0.08101691315122755,0.9631506303317081,0.8544979468264131,0.8384612620110463,0.3592477689547308,0.795534057249098,0.33670670808506137,0.6301482613715749,0.12661199152305488,0.46808305478029466,0.12274042416405366,0.9733568366078752,0.8953579705751333,0.5599166147301083,0.08578836936429625,0.6460264355974261,0.3507260714333783,0.9516949992872947,0.5918514169095059,0.7770234312837271,0.36958092611516813
26,3.343752521040579,0.5701224814290328,0.9018918424053037,0.6118988790100945,0.7272680792457487,0.027919370679255758,0.9591445750178557,0.5596151854308202,0.967853853770678,0.8255678539558784,0.7931252318688452,0.3997855089902043,0.9514479009480433,0.5836902714900307,0.6762404038740311,0.05651219207549478,0.7282200532055165,0.11952994138442219,0.9277259839758536,0.5274658344745611,0.9460035407148766,0.7246980096501504,0.7571601070363838,0.30322608753435937,0.7004987289969922,0.23515369742300804,0.9115431170735863,0.36882395599274703,0.7042737001637942,0.18378192002687527,0.9877034648714323,0.9452222579384402,0.8099914358878236,0.31339934841114425,0.7504240021763631,0.10150212944246081,0.8289869443673659,0.5011353478249843,0.6887681063095275,0.20158128617143622,0.8724613366536422,0.34589725447708136,0.8498025777525534,0.3622294809507019,0.4976665989855873,0.1769426149569413,0.9850824485803165,0.9540273995827661,0.6542309021762692,0.10042614702802026,0.6989994630507901,0.464630495764977,0.9640113905288448,0.6714163813280448,0.8355895034906591,0.1490263029560837,0.8176338997455068,0.4005594501833698,0.4828203026011776,0.87010065170608,0.44859323270370505,0.9218933925132203,0.4094064056733424,0.9635390217472137,0.7705360856921178,0.6866486010086049,0.07536668305202475,0.9038010709624679,0.4061852480613453,0.7058315474007518,0.17281921053760374,0.5881760204605622,0.058368410132452794,0.8849725905070711,0.24085738002635898,0.5927318824543679,0.06032804703202846,0.9633799292764365,0.864548525168372,0.7756363017326171,0.28604246641863457,0.7560582686662647,0.2627579309378274,0.656126406968631,0.11864721743107275,0.46365247939248394,0.10619650552638943,0.9738125938286989,0.9110024349897122,0.609097867816707,0.07910536036359261,0.652437196415164,0.3415143669010744,0.920567747293269,0.5488465600106917,0.7715813094528118,0.3422845594810192
27,3.305229210343581,0.5846562818315073,0.88547036866593,0.6243182752873582,0.7035134888477051,0.02966598398769154,0.9119049760417013,0.5098579682419245,0.9634840146255008,0.8686392976649632,0.8589009323053312,0.36557685785093363,0.9592607723471052,0.5680373505647474,0.7166237260651456,0.05036751491935298,0.7353192148143272,0.07882513450039091,0.929177184718871,0.6696084398583783,0.964292188902387,0.7331317019415752,0.7523573099207136,0.3444123139779118,0.7405749672663121,0.25762905452509316,0.8990008072873473,0.43011181234354273,0.7208819261494821,0.19374113876186919,0.9871768974863971,0.9427788098279934,0.9347652368252345,0.407545312859163,0.7454498464886712,0.09319822592921992,0.9008858796861692,0.5088809427061014,0.6582152138195727,0.19899725819023428,0.8999617844086375,0.3016912347065979,0.9393601382583447,0.42461476492606404,0.6427245506034022,0.23748982913876845,0.9887760653954044,0.9607920448040922,0.6909233634538623,0.14162541474925924,0.7417571671546473,0.5141166317034649,0.9834022260040926,0.7700995171620315,0.848749974012366,0.17275161192191285,0.8408485267242468,0.4221668312240976,0.493329358276813,0.843165925953021,0.4415929300836704,0.8681990342151005,0.39833271707858375,0.9572021842829369,0.8260665624181571,0.7134461157006659,0.05257554469730161,0.8841677699671554,0.5312806229604912,0.7224682734329635,0.20610620430956447,0.6193548443890441,0.05975061638331585,0.876180594986641,0.26807682110857267,0.5968053953345047,0.05586095638159694,0.9616123088215058,0.8490458987540832,0.8990097979874404,0.39267892920031383,0.811972306723487,0.2583674674096653,0.6176927575365948,0.10142379117955322,0.5938748620756799,0.1458241234982266,0.9769990400149073,0.9139621474033991,0.6423110884802212,0.10091931657310409,0.6924501172201386,0.3889982845996617,0.9443363163668139,0.6270082385192762,0.7900693740827123,0.36765950958658544
28,3.271652893141537,0.5926560830786812,0.9047546153765507,0.6295878282179692,0.7532077042979919,0.03552777246594803,0.9337024785659327,0.4520486640505643,0.972617433407022,0.8864882133205882,0.8513999153093187,0.33931541922257746,0.9608093200786091,0.6046956422120924,0.7809530714783051,0.05917756308588931,0.7990474489673602,0.11088526489769554,0.9442854492800612,0.6084272376481425,0.9621679143381631,0.7208220095067069,0.7855957473612348,0.42964779049386614,0.7467889840771698,0.28910029512076907,0.9180767141378385,0.42238424673418656,0.8398114891938466,0.3375864715754208,0.989785897010837,0.9508123222275795,0.9408016847722456,0.4701847089962817,0.7758557493184984,0.08401551982416645,0.9075352216751953,0.5974455479954094,0.7122740995364146,0.242483971402013,0.9032576488567527,0.5099408827457969,0.9353688488088341,0.4260797833844085,0.5882736172008489,0.22218351419419374,0.9882501036376968,0.9617290838887813,0.6732998565670969,0.15889148660115981,0.7189191614337478,0.4906042204583513,0.9820433598737317,0.6987072073307045,0.8600741791026159,0.18569799268745085,0.8566280634690339,0.4416470614921746,0.48841022583289856,0.8631479415476343,0.4674538106844526,0.9036876812757005,0.33675151342411336,0.9662077831015543,0.8404395863872943,0.7727793685796516,0.0763298760078599,0.9107249905732254,0.4585243838497659,0.7227625225390422,0.23411087910590433,0.6168700457346148,0.05588709580081862,0.8854097023280114,0.25211253014379553,0.6947825374402044,0.1151284358883616,0.9649557238334688,0.8566002122093008,0.9005742604221835,0.4285076871986022,0.8355013044477838,0.31319790246210105,0.6694182526145842,0.12672374859505148,0.5245461478548712,0.1248712557487,0.9771401539414569,0.9173243904315534,0.6141025346040867,0.10772437446916625,0.674803078279257,0.370339406277777,0.950857415544414,0.5646778153409898,0.8026817469256524,0.36926138355697824
29,3.2245443972417966,0.6018980894884599,0.9508128126378684,0.7578349753919442,0.7837828405969047,0.053646129445268254,0.972759253947977,0.7232991066121768,0.9794004292768289,0.8809837111773501,0.8536318312048936,0.46746193454599105,0.961678966073727,0.6256214017730796,0.7543289268895758,0.0609240160243474,0.7605473008582204,0.13834693272677623,0.9198415474644656,0.6355849107837074,0.9582334913139803,0.784155042457623,0.7792142394079209,0.36608734197277226,0.7956101800438911,0.31869775287996804,0.946496475225644,0.6090135919869473,0.7950331931776833,0.2714654987139612,0.9912704767756788,0.9628535182775222,0.8856688321382268,0.4103811725725155,0.8328343243558353,0.18757219555942184,0.8668603761877253,0.5775954829954445,0.7448297856059448,0.24215682590975127,0.8649302626872807,0.4133846074668438,0.9362591675979745,0.47749485681560105,0.5699682676114541,0.21389253704850447,0.9924644286318537,0.9678314514532228,0.7352817951563548,0.18176852365769675,0.7452221902356522,0.5309897349471253,0.9857064534592955,0.7988037357901743,0.8634415527715293,0.16498289014632767,0.860226274123496,0.4749196251530395,0.49400014906461953,0.9029672439965617,0.5353527140495885,0.9360230271763909,0.5414530498213647,0.9740896873373208,0.8293824656240864,0.7116040768412161,0.08404944104420746,0.877949131473094,0.4970577333280981,0.7199772794994042,0.17871481692014177,0.6327386600984413,0.06049154191274429,0.9201699635123745,0.377286339070688,0.6271649469107445,0.058933155409180274,0.9626670561965873,0.8568180730464797,0.84533063478853,0.3335824976988587,0.7606188380252359,0.2792581602817588,0.6750292291837516,0.13250242582003371,0.5147448400077886,0.1326127619484872,0.9836120395773402,0.9212421718569427,0.6667787095791021,0.1144391945328661,0.6848150797105956,0.3766843847082947,0.9528269613341844,0.6336767734168915,0.7971726336249257,0.3857520944717063
