epoch,train_loss,train_accuracy,train_abnormal QRS_rocauc,train_abnormal QRS_prauc,train_anterior myocardial infarction_rocauc,train_anterior myocardial infarction_prauc,train_atrial fibrillation_rocauc,train_atrial fibrillation_prauc,train_atrial flutter_rocauc,train_atrial flutter_prauc,train_bundle branch block_rocauc,train_bundle branch block_prauc,train_early repolarization_rocauc,train_early repolarization_prauc,train_inferior ischaemia_rocauc,train_inferior ischaemia_prauc,train_lateral ischaemia_rocauc,train_lateral ischaemia_prauc,train_left anterior fascicular block_rocauc,train_left anterior fascicular block_prauc,train_left bundle branch block_rocauc,train_left bundle branch block_prauc,train_left ventricular hypertrophy_rocauc,train_left ventricular hypertrophy_prauc,train_low qrs voltages_rocauc,train_low qrs voltages_prauc,train_myocardial ischemia_rocauc,train_myocardial ischemia_prauc,train_nonspecific intraventricular conduction disorder_rocauc,train_nonspecific intraventricular conduction disorder_prauc,train_normal ecg_rocauc,train_normal ecg_prauc,train_premature ventricular contractions_rocauc,train_premature ventricular contractions_prauc,train_prolonged pr interval_rocauc,train_prolonged pr interval_prauc,train_prolonged qt interval_rocauc,train_prolonged qt interval_prauc,train_qwave abnormal_rocauc,train_qwave abnormal_prauc,train_right axis deviation_rocauc,train_right axis deviation_prauc,train_right bundle branch block_rocauc,train_right bundle branch block_prauc,train_s t changes_rocauc,train_s t changes_prauc,train_sinus tachycardia_rocauc,train_sinus tachycardia_prauc,train_st depression_rocauc,train_st depression_prauc,train_t wave abnormal_rocauc,train_t wave abnormal_prauc,train_ventricular ectopics_rocauc,train_ventricular ectopics_prauc,train_ventricular premature beats_rocauc,train_ventricular premature beats_prauc,train_mean_rocaucs,train_mean_praucs,valid_accuracy,valid_abnormal QRS_rocauc,valid_abnormal QRS_prauc,valid_atrial fibrillation_rocauc,valid_atrial fibrillation_prauc,valid_atrial flutter_rocauc,valid_atrial flutter_prauc,valid_lateral ischaemia_rocauc,valid_lateral ischaemia_prauc,valid_left anterior fascicular block_rocauc,valid_left anterior fascicular block_prauc,valid_left ventricular hypertrophy_rocauc,valid_left ventricular hypertrophy_prauc,valid_low qrs voltages_rocauc,valid_low qrs voltages_prauc,valid_myocardial ischemia_rocauc,valid_myocardial ischemia_prauc,valid_nonspecific intraventricular conduction disorder_rocauc,valid_nonspecific intraventricular conduction disorder_prauc,valid_normal ecg_rocauc,valid_normal ecg_prauc,valid_premature ventricular contractions_rocauc,valid_premature ventricular contractions_prauc,valid_prolonged qt interval_rocauc,valid_prolonged qt interval_prauc,valid_qwave abnormal_rocauc,valid_qwave abnormal_prauc,valid_s t changes_rocauc,valid_s t changes_prauc,valid_sinus tachycardia_rocauc,valid_sinus tachycardia_prauc,valid_st depression_rocauc,valid_st depression_prauc,valid_t wave abnormal_rocauc,valid_t wave abnormal_prauc,valid_ventricular ectopics_rocauc,valid_ventricular ectopics_prauc,valid_mean_rocaucs,valid_mean_praucs
0,4.749775168478188,0.35830165710168693,0.7669606175776001,0.1793629603361498,0.7500091263491182,0.018247492747435597,0.8339200786165847,0.10829395954721915,0.9417599195918231,0.7019340771669031,0.9109509027218853,0.28645547884207784,0.7848282974105312,0.028253300724018042,0.6756244930310914,0.01863159195126112,0.7308391876061296,0.03616489272679137,0.864515129154294,0.15686371255020398,0.9603777900238077,0.269861725778563,0.5275884863383982,0.07834981527881943,0.47411780246224944,0.02355812026153956,0.8829273876216859,0.19969626622824746,0.5280197296030368,0.027578548321474425,0.9193411061011556,0.6859558512991326,0.9283321127021407,0.27930080765857845,0.6397554922633621,0.009391199499750513,0.6409650139913756,0.05554148783029851,0.5587125398756667,0.04838715183828189,0.5111723603777862,0.023531450055941074,0.8923663831922118,0.09231624258132423,0.46361176328605563,0.07088534196600262,0.9782600876979941,0.842089128138229,0.4336457289460436,0.0292579791648129,0.5586743796323363,0.21694452378526938,0.9726953279731095,0.35584408447525984,0.7034872494272325,0.02383819816639248,0.7345725367990632,0.18024205144148062,0.352985019005739,0.7673922612189158,0.16680236213357433,0.828946329475215,0.11478789752727019,0.9350532790803915,0.6675429357937012,0.7248238232637404,0.03718687481044079,0.852307967587396,0.15304057410296396,0.5343847414504447,0.07360696104416217,0.46057949683120686,0.022736180377718705,0.8776944508864267,0.20741794652194648,0.5377525229602013,0.029948675402891124,0.9181850395794522,0.7033007486456049,0.9369418173564348,0.31298007773431813,0.6375254267360151,0.046779821092152056,0.5609673929364838,0.052220436714389355,0.4562863876809242,0.06922549446082553,0.974906843734281,0.8311040252712253,0.4356622753181135,0.03163079849854441,0.5550866149113389,0.2080094715556795,0.9685762005986724,0.3417731819642447,0.7201707150892029,0.22611635909175845
1,4.314050060648796,0.4374549700628556,0.8054251413606422,0.33385984328538926,0.7194708584264722,0.019864705982710455,0.8741322771804119,0.16192151747238087,0.9245638328087071,0.5895829182538229,0.884316224760907,0.28818179917670383,0.805908183726617,0.04878242108747376,0.6758491886472348,0.023970014285733816,0.6956317555748159,0.03812979761543338,0.9305666062285751,0.4142798516008929,0.9432599754976495,0.2802010138537536,0.6915133366801456,0.1504123049792578,0.514333708639972,0.0348859161616233,0.890425174615486,0.27690081136120903,0.5261740403180601,0.03099947310207129,0.9380955697839947,0.7226555773779564,0.8529057548377891,0.19603176467414124,0.7009849708800391,0.018252330406394957,0.6679355783781967,0.12180984059322515,0.607186716949866,0.06074051964888762,0.6024719261648366,0.0862067308336877,0.8727727373721534,0.05382657682155768,0.453357075396836,0.08460633971761902,0.9789034666407991,0.9001138551875304,0.5561607410949324,0.04404204320210757,0.6022839671791094,0.309145601346583,0.9656040198915897,0.48862800821762475,0.7052268408600452,0.03161823799383887,0.7550170248109587,0.21517221534220782,0.43497055973764626,0.8071751071443812,0.3383259772102135,0.8624524284894538,0.14381864830906602,0.9199374249683939,0.5796124808332529,0.6861673377290665,0.03907532819828746,0.9186970596887528,0.3742861339398538,0.6928966202897222,0.1386198957768258,0.489186078789362,0.03286108560701716,0.8761061796694853,0.2379604189872116,0.5379600811194205,0.031041702918212948,0.9362835665814987,0.719872048675616,0.8788582885677536,0.22589481428960867,0.6507037020994445,0.10232460277536849,0.6054044151147284,0.0601257433863427,0.4456292999935094,0.07855666534089725,0.9774223817945563,0.8797675547401538,0.5549642179621461,0.043761802452853646,0.6005930410626518,0.29338537965500555,0.9494487378917555,0.4655842836161062,0.7438825538308935,0.26582636481732747
2,4.161356926301983,0.3924622990733149,0.8504094599143854,0.3710001282770571,0.6935293147667441,0.02084627940907515,0.8633312972199643,0.17154815896734796,0.9338831241841276,0.683047175202789,0.8707239429383002,0.36358972205662304,0.8542558899324154,0.1340863583972046,0.6777066171769688,0.028409015856828087,0.6910656869114997,0.03993176829536221,0.9125197841222148,0.37253652824260286,0.942300145734617,0.5489785192395055,0.6777716753738816,0.16940490687722956,0.5122203785557486,0.03210916555720575,0.8693151220483494,0.2780880988178043,0.5379643384365579,0.029238936438502384,0.9515708743444585,0.7907581539640866,0.8149853852487356,0.1847491845520738,0.661828145039058,0.014086060894703118,0.7338663824082889,0.20185575563374844,0.6275660695209234,0.07860556413394248,0.6214778110434768,0.06637070369353852,0.8744732820865337,0.1145055116044873,0.6585455304957007,0.14889787927154288,0.9666980826306172,0.850432278315635,0.6829168471998344,0.07985896396681846,0.6990151745376617,0.38199798066859786,0.9668323130147423,0.4663155296716507,0.7386238612218762,0.029250174375713454,0.7735332050410251,0.24631475934746946,0.37936945665946187,0.8493520127293012,0.35402462063720774,0.8478623157951425,0.16361571648558515,0.9334794479798568,0.6770323522991732,0.6982727914367318,0.0442039634493753,0.8960523296348477,0.32413401807140035,0.6766684621496898,0.1524914517547038,0.49795476539662586,0.037177239678501985,0.8515199127527306,0.2515423608414913,0.5433372113506345,0.028527168528366616,0.9472598888923294,0.7861844419337418,0.8452844821063782,0.22192101842129028,0.7211884468908163,0.16855080346810086,0.6233284393434011,0.06570880449225444,0.6597301551242941,0.1476761641883652,0.9655273845314292,0.8293744227734094,0.6695811995994466,0.07829455326754697,0.6928708658606824,0.3656995915326339,0.9577666292754574,0.4367396084858097,0.7709464856027664,0.285161016683831
3,4.04588901161724,0.44403865742466025,0.8629528866557405,0.40132647528657417,0.7140158425124009,0.016075148288732667,0.92870905350976,0.2821380543071585,0.9759927344775388,0.8129980678521498,0.9049092906176964,0.4722512714562471,0.8915918318117748,0.18623948918015132,0.7249157705945821,0.03305533439697659,0.7632209451110372,0.06512587871855978,0.9280291002584732,0.46829554607430307,0.9492242122878447,0.6270164483758889,0.7165777885809628,0.20805284761019002,0.5358556819202678,0.04120826178681333,0.9196549185993457,0.31076109918129896,0.6061984591984249,0.038709423625610154,0.9564308161019552,0.8180089229883922,0.9662920823319409,0.4211857089238607,0.668351571478539,0.010732565364047975,0.8397263660030156,0.2917463466694072,0.6562235977948199,0.09308849477501183,0.8302435295852626,0.16644628317528976,0.9133232065949383,0.20346080112637135,0.6768988340518701,0.17192290461945886,0.9927459175172209,0.9534033136652487,0.7028839199397748,0.08450342050062887,0.747145549622467,0.40738690895982577,0.9866231213126675,0.5387542780678797,0.7990085613661595,0.0469421609264033,0.8206572440680178,0.3026235354037955,0.4294551688156816,0.858497905883644,0.37326760462995473,0.9184719188452498,0.2862025071602527,0.9718969583647626,0.7841897291540408,0.7667266417258191,0.08588931669713681,0.9144825585294031,0.41755323250683796,0.711240487760154,0.1829705504907802,0.5333264669789978,0.041541089357801826,0.9063869603638829,0.2550002150703329,0.6157447093523352,0.03696839792119331,0.9518307848421579,0.8120687459425262,0.970049557388212,0.4256211907151204,0.8222925211660397,0.24559659274530274,0.6529033894730447,0.07664082019514681,0.6711263549036153,0.17034992371872953,0.9908995797916206,0.9347526569306829,0.69365767088795,0.09025233700718041,0.7391633339372357,0.3892346284518479,0.9767751011731751,0.5158425437006523,0.8147484945204054,0.34021900457752896
4,3.957306232029706,0.44043626245310674,0.8546389876043634,0.43907492657449704,0.7204160578112733,0.021531664484211357,0.9387078053397752,0.4313193051210332,0.9665112909914422,0.7886477275546312,0.863292294022395,0.3819398184186452,0.9132238769816279,0.24060125842927152,0.6555807726583576,0.023868679952133914,0.6514570973127842,0.032517463107438874,0.9294687803529481,0.5118878199216743,0.9437751148665602,0.5369843284255833,0.6828198230115707,0.18497057327481498,0.5629381407640918,0.060410758182845595,0.9171575024894475,0.3853470135834168,0.623213493514341,0.05262406845489002,0.9617997720682093,0.833336791235509,0.9194715118735636,0.3273735068501793,0.7068617620768723,0.013692401880735073,0.7958082320280931,0.29902575721744834,0.5827107154028093,0.07432265236421709,0.7869867121364136,0.19455473188306455,0.9203335676802169,0.22549259734599955,0.65877370528908,0.16317615185229448,0.990211690541633,0.9550291664611618,0.627889002012158,0.07925089022558919,0.6613962958562956,0.3630623271636777,0.9765441143703353,0.6007790810751016,0.8061825620896552,0.06289112937479278,0.8006729881906044,0.3068041700153651,0.4334053812327644,0.84955441349501,0.41213312248143724,0.9224754032685025,0.4187810406048969,0.962159316667906,0.7524180343460612,0.6434650956126782,0.03793915363079478,0.9100166767140304,0.4582412729733548,0.6832973281684545,0.15740140682874837,0.5452818462394385,0.041663473687417574,0.9011748508030958,0.3184464527150883,0.6218740539052582,0.047661204091802724,0.9582720006531662,0.8262931007185796,0.9365143375955209,0.3474543849057831,0.778854763983247,0.2446268484893854,0.5815491018202306,0.06728640569846614,0.6503358862854547,0.1571425827564601,0.9875820853804419,0.936547611446334,0.6276894884073934,0.07999220770494556,0.6524740614952801,0.33866765687173167,0.961234095824786,0.5603248490863367,0.7874336003511052,0.34461226716875687
5,3.8777568676389316,0.4622245410051924,0.8315655205201742,0.3698004175952608,0.6572676332991442,0.012307115131234489,0.9271466358878717,0.29925567114600105,0.9748219025520173,0.8218991425005071,0.8501579518678793,0.38433373304335183,0.9036618026180763,0.23687236293890704,0.6455250685194293,0.02469842663977817,0.6358786366482556,0.03501847387907024,0.9172303797585217,0.42593601254442326,0.954659974571479,0.6327150729702264,0.6113550013175396,0.13454432288831472,0.5466891631538404,0.05441059482214734,0.8390239024345134,0.24422722769422153,0.5401527907838191,0.041660545594031484,0.9552721370546264,0.8281434259636544,0.9089666501624664,0.3203187771618362,0.688764414241854,0.012828081442755187,0.8007818651573668,0.3124676970829832,0.5718216385902364,0.06240948834506416,0.7974555233236785,0.1776133766519552,0.8913345916845072,0.250981178722449,0.47515195825168455,0.11095450091881079,0.9823012349872297,0.8774771719582228,0.4768560194452967,0.041643540374024325,0.5985034437967535,0.3087799111209278,0.9772861240001477,0.5762662741380356,0.7899886486014496,0.06349036061470022,0.7685044671566615,0.2837427001438109,0.4275173287620183,0.8250675786893941,0.3303175124492783,0.9068344327678423,0.2740331497682129,0.9704394860135773,0.7966564817059294,0.625152588984337,0.04186256462450737,0.9010003332647035,0.3654713012681571,0.6092341309862167,0.11602455136003427,0.5148773944943575,0.04241435443569373,0.8055896712611798,0.19410666254383308,0.5309778099228503,0.044668778807732096,0.9467986180759564,0.8079262341432153,0.9284047060603768,0.3635746561233603,0.7842644530482095,0.2555853403827573,0.5694274930151555,0.051933006020088934,0.4675649866943597,0.0998653914099805,0.9773724137663303,0.8383748839220022,0.47655110240555465,0.04362067188588804,0.5854444450453423,0.2850222999525014,0.9596825672267084,0.5494308127494193,0.7435935673179139,0.3056049251973662
6,3.8245899801073495,0.5229932175598122,0.8753414996323253,0.46475726626454794,0.7438440701028062,0.026542296042002395,0.931513186801104,0.45393840658615187,0.9613773303318164,0.7732639820511914,0.849676820110581,0.3075336437120979,0.9194556120219782,0.26974801809030474,0.6561222452157907,0.024825452629596696,0.702344025228533,0.04493729585705801,0.938760290980678,0.5201232092731365,0.9375469195317488,0.4914640871670212,0.7182735405335278,0.2123074286511089,0.5755979630146106,0.06198234202005755,0.9003968260995232,0.3698183790879348,0.5960987294205576,0.060287511689064224,0.9485079776246371,0.7677652386347642,0.9257319481544141,0.3154833168125724,0.7397979646563068,0.0156112480100707,0.7874319723935027,0.3450645990441058,0.6198842689613289,0.0748776157760077,0.8336072386072358,0.2253470726364081,0.9076112973989865,0.256627556766304,0.4628916870590219,0.11723536237176628,0.9750027618473434,0.8977874018732149,0.5556534734458631,0.060965699360110204,0.6346586625095001,0.3698839276283058,0.9795719663791865,0.6190802937380214,0.8072014436650464,0.06995817541406149,0.7957000637677021,0.30434136396988837,0.4955653275695014,0.8616775487560279,0.43467954413941523,0.9122526454290051,0.4108733562548922,0.9571862483665686,0.7513613541780785,0.6920032035458425,0.0419292635885385,0.9185358188792264,0.47129074924922487,0.716394001558632,0.1858947039372425,0.5455506317339422,0.06603144254304992,0.8768039684357561,0.2976982709869652,0.5759375814224161,0.0432479694667778,0.9409229172310478,0.7489689541764114,0.9347155178936218,0.3607596893519884,0.7625122031673259,0.2406848678122977,0.6177483710585521,0.06534326042027586,0.4510700493282275,0.10403925444714826,0.9675846142839792,0.8632355171784634,0.551855360603111,0.06269947875821129,0.6211793039981035,0.3292497156745465,0.9614544147449444,0.5608475626122992,0.7702991333575739,0.3354908308208792
7,3.773213363138626,0.4545228689970435,0.8543257137037596,0.3091035061596566,0.653026992214602,0.012010142596821927,0.9334174817665082,0.4257212256965236,0.9710844320775979,0.794215715755453,0.8584186242885712,0.318193242782016,0.9245058413434445,0.29168734972837246,0.5988468325190125,0.015891458273881075,0.625829868310861,0.02810160881714097,0.9440674958221512,0.45412903392547993,0.9518161599914656,0.6195886998955359,0.6958300429850166,0.21106919526388268,0.5510175536455296,0.0507264671812398,0.7765768714437693,0.148336312418094,0.6022326652993477,0.05304135300634939,0.9568458320252992,0.8139962007914521,0.8931489342279426,0.3189299373530411,0.6310424890487849,0.014501822167684215,0.7720620557251283,0.27476179457466154,0.5718086809491234,0.05570162670439593,0.8793598343387126,0.2475366072624084,0.9200644793448646,0.28831309710335035,0.4677304328669843,0.12331530939744402,0.9710661000861587,0.8836111288965822,0.5129292545678499,0.05039514798839763,0.5738705366560409,0.29301646654109575,0.9486193268313219,0.5359355872189493,0.7672683046499154,0.06897322720378506,0.770622697656658,0.28521493572976647,0.4249086979205486,0.8486520230931958,0.2664943893281881,0.9221910385262374,0.3630594474576786,0.9666410275478874,0.7661851610742073,0.6199378673015247,0.029312779458489244,0.932994081771499,0.394347583073275,0.689086280599615,0.17821329845871303,0.5103881485550432,0.03859634835141687,0.7423616652307696,0.11138382758158336,0.5625650459302163,0.038435395894394854,0.9491005809207449,0.7875909414151577,0.9016872210032534,0.3439492530350887,0.7453844539145096,0.2087235152949975,0.5689922102567591,0.0514257291650642,0.44984475400791846,0.09819594195072257,0.962929213438904,0.8463018509286291,0.5064129561622102,0.05171830539084378,0.560561980655297,0.25298463251645736,0.9257246354357107,0.4891214731481827,0.7425252880195163,0.2953355485290606
8,3.726725745807064,0.43526868897667137,0.8487273421615417,0.32016507513296794,0.666950586004951,0.012159491957521059,0.9387077449249646,0.352001068387837,0.9819672453742543,0.8835239749594043,0.862551916761635,0.2823809321328404,0.9337014616335267,0.2927984385830675,0.67357802316706,0.039721717055519905,0.6925136010512701,0.058828191374133254,0.936330020928461,0.536107822475749,0.9593545004417319,0.710267863487335,0.720090560523289,0.24247439746858374,0.6484350120088733,0.07827250572702268,0.9028940848051127,0.3193176043661544,0.6507970350960965,0.08561433985228312,0.9649239464540547,0.8471501236109917,0.9544617101394408,0.48431352622907725,0.7048160917625764,0.016313548982284563,0.8225088021879606,0.3876249861462264,0.5651982495972265,0.07690734804233719,0.8578662127266518,0.21739687369181102,0.9358166286168813,0.32139972416737544,0.561207331214995,0.14311581058844958,0.9837218669078974,0.9329323818977547,0.5728817080361668,0.0669129256367329,0.6366826139741563,0.366618684040652,0.9799616308065578,0.5769599272383638,0.8137535707009178,0.11883985612719405,0.806311092518824,0.3248192273836914,0.39926958336438845,0.8407026720558919,0.27292374960802096,0.9282807740688466,0.32074609764992584,0.9771614414567551,0.8520923390857953,0.6793367636141555,0.0691813295936268,0.9164924243777233,0.4652478808852803,0.7126223411570551,0.20633241827142287,0.6064493260115695,0.05636211185138425,0.8810610069812824,0.25027946907253146,0.6176621689189752,0.07159348577502438,0.9548191518476589,0.8209421978531245,0.9558386925928727,0.5044116633053538,0.7832577958664166,0.26772137849892913,0.5575390332059784,0.05740597608064158,0.5428611994547933,0.12009237270805648,0.9772255598942519,0.9003324587686469,0.5711473327617811,0.0719616293808593,0.6191152876512798,0.3328386546229585,0.9585884095514913,0.5428385671730754,0.7822311878593767,0.3435168766769254
9,3.6849851140454466,0.3833196690765447,0.9071059415495305,0.5042300556079231,0.6529817753030622,0.012515335081978751,0.927308759031863,0.25806967516792867,0.9726107131952704,0.8422771826543946,0.8117584620938417,0.21531222907793343,0.9327284223392015,0.3117786267743197,0.6621652471025833,0.03596482831161064,0.6841797699574526,0.057676901653788054,0.9464775705099876,0.5567394385509641,0.9413223499822743,0.6175087694234871,0.6912925863206839,0.21297539296754942,0.6246093633841578,0.09236989963101391,0.8673201700045234,0.2821260253458235,0.6872740044778419,0.09344801970306593,0.9668379282926179,0.8641901518981834,0.8658971168158339,0.3318329730844841,0.7322926764269891,0.025987615778207802,0.8075941221637163,0.35594736463796184,0.5789366666104129,0.08713727037101728,0.8190388686649578,0.2394659396729398,0.9500601303467686,0.35582211229539634,0.4817078506423195,0.12361598034275495,0.984669426863962,0.9371435431813261,0.5309592903986249,0.049402837608638436,0.5976029501604248,0.33256713323565984,0.9802291885720068,0.543604128484832,0.7907846602272774,0.07799328022651073,0.7924350374606737,0.31176676706554424,0.34992919430573155,0.892615115435497,0.442766571068532,0.9149405563069479,0.23172261066487568,0.9671487724032425,0.8120601525686044,0.6557694909799705,0.052711845734917315,0.9304506217290609,0.490588249985593,0.6766718525564622,0.16964363365366378,0.565184590492388,0.03700336494391529,0.8343080876317632,0.19374062591220423,0.6383972535590337,0.05646617232233611,0.9558628777383789,0.836186124765925,0.8804161307407127,0.33979705726729154,0.7634114058381951,0.25189115360969994,0.5655780747539851,0.0709369861430893,0.4667727331732329,0.10016855896167043,0.9782917478439156,0.9068367495565198,0.5316317816390345,0.049089977739069944,0.5786803112530431,0.30011271848710286,0.9587176261333565,0.4824592762270967,0.7641582794560122,0.32356565720067265
10,3.645729055570752,0.5336016496484559,0.912967191452732,0.5355882678673387,0.7493170275895756,0.019849106126033727,0.9575989124367472,0.5168035070944419,0.9764937941759231,0.8311787195800004,0.8890059920530663,0.3545144748646198,0.9429295865595094,0.3607332455024436,0.7686178866179109,0.05862250229101648,0.7660847135520473,0.09547962775264689,0.9378323604416215,0.5891757220489278,0.9664680888869679,0.6253766116172329,0.7153435902866607,0.22727902906458763,0.6399304665415227,0.10472935824722067,0.9399549587571198,0.47151800247099335,0.7578372477116347,0.13468967585761477,0.9394168055540728,0.758073700005121,0.9031876314418223,0.3450425860970276,0.7987653580728081,0.02428567138110211,0.8477334446772494,0.4555519030181997,0.6655387431157475,0.11685443852072863,0.8393605544316152,0.2500397342966547,0.9286204994620603,0.3796784000943949,0.5265240900552091,0.1438450839782256,0.982674396737455,0.9209162046118267,0.6883058704909251,0.11415123870609087,0.6672449462825846,0.40950070331509736,0.9835312049295526,0.6332908824792909,0.8498595004553033,0.16781643871428395,0.834857217139609,0.35720684576308015,0.49310576134754414,0.8986852485200968,0.459835612520271,0.940124756616165,0.44413394702187975,0.9723266969094946,0.7952192932457666,0.742901183776015,0.09072646230650039,0.9229680035557221,0.5427727918885542,0.7047725466825586,0.19325912746027663,0.5897103865640116,0.05679973927368863,0.9213239816000311,0.3735969549486227,0.7171323313295547,0.07984232807519666,0.9270244088908909,0.7275203546001415,0.9150189150336687,0.3627757932915276,0.811431494000873,0.3231018236230473,0.6534657277392975,0.09662573819446095,0.5029020899591095,0.11954359592450699,0.9759874508707802,0.8967642072789552,0.6703965952293062,0.10839154284622214,0.6468161955778129,0.3592911141758441,0.9658663708422938,0.58430607545623,0.8043807990943157,0.3674725834517607
11,3.6097851931087743,0.5103475690044967,0.9323267238703038,0.5822404108238648,0.7608872678096036,0.02196662333984869,0.9512942443333627,0.5307434035548582,0.9647614111769994,0.789251032183699,0.9161699347248865,0.3699535051187195,0.9546926111335181,0.39584310071096324,0.7756225108739423,0.061326137026823345,0.7789793919032858,0.08822813179327242,0.9609532458439506,0.6064011596318295,0.9804153993998075,0.7091420629420722,0.7752495858456305,0.2565072313921063,0.7009056972424196,0.12649674728022092,0.9104741352256479,0.34089197609185384,0.7706923171903017,0.1303053070668693,0.9493743754591042,0.7828720376834544,0.9271505602430729,0.40972257420958447,0.8080638140764059,0.05025016624713588,0.8753370110426357,0.46786732750594023,0.6738921794798588,0.10783365960903461,0.8586688706525063,0.33319638329392676,0.965400415760428,0.45034575011037936,0.6877517829863253,0.20469579979003513,0.9870437707229284,0.9377692884086616,0.7391465467755711,0.1044318817017313,0.6939567876762617,0.4155213864281523,0.9833892253818339,0.7065628652906811,0.8485374991164205,0.12627750596323706,0.8567087894795189,0.3743201279703317,0.490124468957293,0.9119105534929374,0.49576552204099167,0.9271595073339906,0.4628850763803074,0.9604681441031797,0.7620929207461309,0.7578664238408175,0.07407557797761599,0.9446024091432468,0.5466802570119205,0.758670654931084,0.2015456657929912,0.6378520400408225,0.07869484842440323,0.8866296489919717,0.24270944435749647,0.7181841065406336,0.0798126965448251,0.9381068498716233,0.7570213185202682,0.9292244836195808,0.40823782509108014,0.8358111732699824,0.32737431221095226,0.66009079549154,0.10369089262113082,0.6615972853248524,0.15794363762988056,0.9799035910984814,0.9055192458238791,0.7233782205251278,0.09905361169186307,0.6672500182522707,0.3623446391145096,0.9600132005428956,0.6194577708192299,0.8254843948008355,0.3713836257110821
12,3.571630736362362,0.5110680479988075,0.887787442021098,0.45037172420006966,0.7233414156834236,0.02302001147441306,0.9493912482863842,0.5447199018207527,0.9698234232551524,0.8215087514716651,0.8459511483831533,0.2778640979616273,0.9479124128569191,0.4319497112637822,0.7054667280501257,0.07579242740722356,0.7333167345449433,0.12366295022786147,0.9560723734574115,0.6487130879303831,0.9659205978738217,0.7285334625730326,0.7208761537187444,0.2484093245228952,0.6151759105098693,0.11612720819232147,0.8977864920738077,0.3791886981913833,0.6958703572985654,0.13716414610091932,0.9664872793305442,0.8520196685707994,0.8792748639793627,0.34509593290207197,0.7593769605312103,0.08842711394991115,0.8399219471025011,0.40375732741001685,0.6161682347993923,0.1046430907405771,0.8549039478210548,0.28243935006770526,0.9166017435787138,0.37209431039251833,0.6340516082787477,0.18127369900389462,0.9860826990147809,0.936160111157304,0.6440532715410321,0.08721795136488408,0.6509176338896276,0.39916471903342254,0.9788316571032388,0.657603841280562,0.8392064000266113,0.11934477400602692,0.821502617963342,0.3643061997488157,0.4705970038011478,0.8724679481317555,0.3826896011012876,0.9236537976611136,0.456728582196832,0.9660003505901601,0.791790567372928,0.7088931310272192,0.09916622942994102,0.93831401757171,0.5637189460008213,0.6998326285107423,0.17155584272302446,0.5636478769173707,0.053573592530276444,0.8629939863847665,0.2746321957589718,0.6095860465960706,0.07242048846594357,0.9534318680648827,0.8093486779245951,0.8873314670500114,0.35541880012718824,0.7867588137688378,0.2531208417062275,0.6006308498473409,0.08558120798069628,0.6063675196339327,0.14228042539187202,0.9802641816861907,0.8977117608077491,0.6250468095947415,0.08335809811162474,0.6239273748908244,0.3468795848582404,0.9521238619954511,0.5996831378081969,0.7867373627735067,0.3577588100164676
13,3.523206389210084,0.5249807458199797,0.8966321091515097,0.47998043521524847,0.7278746703365652,0.027000027814535876,0.9279886371018872,0.43617706322384775,0.9689129869586465,0.8152917501433005,0.7859027593589656,0.18748171298723101,0.9447821828232065,0.48134351996454683,0.661146676069742,0.05289676018631137,0.6801349885799524,0.05176522536098103,0.9266346030131211,0.5754240241029528,0.9355755917070708,0.5615225644136165,0.6860024224412796,0.2199489521085339,0.6199553263023594,0.127055588614302,0.8752775283903265,0.33395803241918753,0.6886645475773433,0.12653650479690182,0.9647286312431359,0.8422507418466405,0.8633502028348454,0.31611202031521607,0.7711403698706951,0.0534787698535828,0.8274996279920561,0.3784117035644011,0.6125896718468719,0.09827946057280784,0.8393988813379787,0.23422258159477968,0.9023400321958508,0.374101603604552,0.5557824619389882,0.14810012224916178,0.9799104699764585,0.9217592764800147,0.616902256079041,0.08157781024109867,0.6156719461316496,0.35585628299709277,0.9627037475586638,0.6387666425164463,0.7881288903488163,0.10064799108695598,0.8009493414506305,0.3340721173434906,0.47082060073041665,0.8755477927952644,0.38168221869498703,0.9016164398116461,0.36659276872349217,0.9627484143763213,0.7878056308347745,0.6373975578448474,0.03576561433473988,0.904372068980739,0.5061569082451973,0.6674266430579749,0.16102298312550403,0.5572099361429047,0.053409257484420276,0.8417889263576016,0.22810098258726505,0.6041026838791099,0.060086832269439935,0.947980364192888,0.7928431766117566,0.8595800862525533,0.33724935791966665,0.7803449664641968,0.24689466881201239,0.5895495347501092,0.06958521428726105,0.5290090948919322,0.11229780765140973,0.9715924827233186,0.8892089402171581,0.6036234377766684,0.07614016010855125,0.5929730109756988,0.296420787631509,0.9376460271323835,0.5583313033530328,0.7646949704670088,0.33108858960512094
14,3.491577448487972,0.5615512658070607,0.9005250428278777,0.545882439236073,0.7360973034749612,0.023236852769674687,0.9513233038572156,0.46013156501779,0.9786162684519526,0.877853308686761,0.8405785572688462,0.29528136469323235,0.9432285116219612,0.43347524188368464,0.6939746350161377,0.08919591208246114,0.7385719881528942,0.14958510983771012,0.9438976982839554,0.5338558739901333,0.9523138050318833,0.5961096507760821,0.7688588364224975,0.30869279455507526,0.6597012853391578,0.1439889774189644,0.9083003522118159,0.41561685833974404,0.7440124298903049,0.19266790160245204,0.9571560331436814,0.8177369281811788,0.9319150958135631,0.4730655610386125,0.8209488832259032,0.10429920594739853,0.8354520824229293,0.41223321885769787,0.6590224135981948,0.15670078347626742,0.8974175457161111,0.3154734271959756,0.9562568012313634,0.4674129203173683,0.5971212653096457,0.1869815531043357,0.9786349510603267,0.9240106147576562,0.6774956936414386,0.11052896663965522,0.6788102197240069,0.4304968632619244,0.9708743021198665,0.6186520674358619,0.8448430139002657,0.16395983260394642,0.8357758636577317,0.37952317754473025,0.49996273384512185,0.8771955301132103,0.44476111786656547,0.9303313658859098,0.3934693521342794,0.9719119912458699,0.8448214884453104,0.7164448686582774,0.1170471066313317,0.9207660640158026,0.4592546645538718,0.7420011231319337,0.22753204072611768,0.5825244826612815,0.051890338956279994,0.8711620724513961,0.2932144232935975,0.6385107235928857,0.09259107276073347,0.9381064680249207,0.757834745738313,0.9161523038511008,0.4533803093438991,0.7898555236616499,0.2529092061779569,0.6363500246624579,0.12922315836083537,0.5681696631401312,0.13675274724633726,0.9693534048414084,0.8875250680265593,0.6484110080827624,0.1021927163382337,0.6508239886213992,0.3603810012312982,0.9358270790855061,0.5332722408872376,0.794660982540439,0.3632251554843754
15,3.4523240854149533,0.48165262974832923,0.9130356009625805,0.5150346651533259,0.7860014249549647,0.0344937479359438,0.9523001106517394,0.48645249760572346,0.9763592597386404,0.8633600808116259,0.8712566323337696,0.3110725456646097,0.9524034700504637,0.4485951066734088,0.7508298979011103,0.09377935036181911,0.7598749585030291,0.09209534915147638,0.9533931967616845,0.6016701127558489,0.9581110310145288,0.6568429719012684,0.7755240102417331,0.3038755705724197,0.7038136194052625,0.153493636060073,0.9265060493427091,0.41169158875402123,0.7677500046439307,0.16776687065047216,0.9498342579148881,0.7849161321153633,0.9267600625228843,0.3946566159295126,0.8013337996968638,0.07082420042717961,0.8716365935629518,0.4650282209985411,0.6800023950251906,0.1185435378005473,0.783450061825887,0.28298324208972336,0.9403417421858975,0.4118939624672316,0.5227625172318173,0.13936735118487814,0.9888541134640187,0.9545728286983092,0.6622022206804771,0.08201581199195904,0.6352350016727444,0.3614741188602571,0.9765568138882635,0.7113424000974872,0.8431921130649191,0.14046771652370038,0.8381229984904794,0.37253000863839736,0.41447417455466945,0.8890479238680494,0.4144200122325597,0.9269057077079764,0.412208355863789,0.9684450264005015,0.8258562869816489,0.7297743255548608,0.07006140666776345,0.9301033727129331,0.5361345332150831,0.7504706457626601,0.2148336339481703,0.6198733421715639,0.05823495446228574,0.8992615820785761,0.29053901335900906,0.6526987712851383,0.07709735615234711,0.9285385525621705,0.7278010797469459,0.9066456079291821,0.34712610061074034,0.8130176975080549,0.2897683246299574,0.6574072291589397,0.08243436388778773,0.49076913091451935,0.09448847112318873,0.9806315382000309,0.9233760128401507,0.6363870695809829,0.07686606449505155,0.606802824099487,0.29327129285476516,0.9483211140514511,0.5987608134059472,0.7963945256415044,0.3518487820265106
16,3.412282683284193,0.5217013241907034,0.8748345899706366,0.5143418893871898,0.7441504769035956,0.03400435632668396,0.9062423965443694,0.46951759496383805,0.9382631694104719,0.7705589884103378,0.7841045188765702,0.20060923206010933,0.9616067335495045,0.5283438312994609,0.6837294906567986,0.045690475263693846,0.6942491191671107,0.05249788255520205,0.9390863214224954,0.5934197219871157,0.9276533622298477,0.5008766469221183,0.7514407136397415,0.30326750588118134,0.6992844915095872,0.18373413443572392,0.8757194704997763,0.360192823540088,0.7169577227475024,0.14202848261544648,0.9684682570209775,0.8519789662773319,0.9363048114956969,0.4345121488012264,0.7991944125207503,0.13861881182332467,0.880524998749204,0.4970838590340569,0.6459453102008422,0.13967904315699953,0.7453575695006723,0.2429795013771355,0.9204160588886557,0.3422227434277435,0.5541349169856977,0.17130012210404796,0.9785088830220687,0.9262351103060584,0.6886501286187128,0.1177773170661802,0.6680937818552497,0.41672912249546157,0.9753518474946951,0.6922725838908166,0.8339343614734364,0.13927917722152877,0.8182299227760989,0.3633241508381519,0.45263471714988446,0.8450816004291872,0.3939697107614844,0.8762220133605945,0.4005698570207021,0.9328765391439224,0.7326793078095206,0.6501983931072566,0.03423437094046945,0.9076440611656985,0.5092505913069277,0.7239764791723969,0.20378499317875998,0.6235738376641249,0.06237381470183294,0.834357132060477,0.2170550724158509,0.5899082573309002,0.060701644718943806,0.9477682657064309,0.7823665862961863,0.9245819777559204,0.4072174083838701,0.8149010668816867,0.30145840629661586,0.619482657350974,0.08742157414792634,0.50523800058415,0.10863092579378998,0.9676945328543946,0.8883344185207812,0.6524939051656785,0.10052336317561689,0.6363433355776866,0.3290208485498032,0.9486889319955131,0.5783882253510281,0.7778350548503884,0.3443322844094505
17,3.3693577113416557,0.5362102804899257,0.8800321042144897,0.5199300992179888,0.7107744848020361,0.021162289037962488,0.9540398558115967,0.5315242277608936,0.97680180536077,0.8741138210542851,0.8811462367400167,0.3358515151482792,0.9573262005675461,0.5317909404800002,0.6668282564540693,0.07330036418926662,0.7047782365300934,0.09158586147332536,0.9449586541723114,0.5673059971062794,0.9656080797041607,0.6982724008859091,0.7441289782374727,0.29745792576662816,0.7109680000225372,0.20785924715473128,0.8959788019682622,0.384018499960052,0.7754041039235205,0.22625959023346692,0.973447164548756,0.8754795120808814,0.9447728100675468,0.4547209498578079,0.8271087126700979,0.11255772421380159,0.8815525437681654,0.506672302957259,0.6259610443142078,0.14284961329174822,0.8349299870866922,0.25210715648520404,0.9576525785342359,0.5017759145594811,0.5642296865786124,0.18580339778698302,0.9750342535707139,0.9189326349727421,0.6982038075177383,0.14213396903303266,0.6266175230341621,0.3934016921803969,0.980908869605459,0.7179441382435922,0.857232504085256,0.1873384504992879,0.8339416771811305,0.3982277865048624,0.47976447790117016,0.8479541062360165,0.39851695140731436,0.9241748601191092,0.43660375655095907,0.9704920479777321,0.8408238386088152,0.6514798114442653,0.06310495567334032,0.9190722773301486,0.5012348710404478,0.7115005462852602,0.1989742179986755,0.618765335591601,0.06492029916710874,0.8506646279430677,0.23315725956508185,0.6439332418376404,0.0858933371505818,0.9489002849687226,0.7920386490456247,0.9362048876447,0.4338717062813238,0.8248020837845311,0.29849580565094613,0.6023355112444124,0.096333964131418,0.5200305056143312,0.12256647098315243,0.9619748851040371,0.8754258561810013,0.6607585705325139,0.11856702703720222,0.594623466921928,0.3078484406951978,0.9559665834144163,0.6126549515188062,0.7857574241108018,0.3600573532603887
18,3.331157997822525,0.5825196889518273,0.9136760293256925,0.5700282035650517,0.7735687447432747,0.03333979035188763,0.9542534322358688,0.6087986583990678,0.9737145501432256,0.8236092832860453,0.8475652053707382,0.39136853419318407,0.9606365499596254,0.5719778188961652,0.7060595955491182,0.06464682518728847,0.7062163986277251,0.08527129717332553,0.9591991733142503,0.662384411746298,0.9416209970360834,0.6209016702094351,0.7106300993747852,0.2317825795528672,0.7065396320993289,0.208611694254324,0.92771705906577,0.46881239175865447,0.7754563208267727,0.20142953675029202,0.9692115015952842,0.8601067568322258,0.9063978026630536,0.44089234970807695,0.8520421725878179,0.1986051652165871,0.8846354211379159,0.5609418991854341,0.6915208479313895,0.15657686149971828,0.9166941179694885,0.39742340811578114,0.9392821180378724,0.43999554853575507,0.5855083704265523,0.1762690023247328,0.9822633354448393,0.9330637403203816,0.7110640851814654,0.14192237945371777,0.7293077320142407,0.4708684871957972,0.9730222387156547,0.7071300557757576,0.8379907608763446,0.21909284080126365,0.845770158972377,0.416513007047745,0.5028694939256168,0.8908608738592096,0.45578723365526347,0.9139786648211159,0.47074402462772413,0.9668292307201972,0.7824860433619175,0.6485179943462537,0.051259843372168136,0.9281811194256928,0.5575532693647542,0.6738048577366218,0.14642167739514375,0.5958713256934871,0.05428582275251759,0.8912183851036436,0.31975883127490656,0.6269729678804976,0.07808475425512285,0.9473531289143626,0.7848469929513117,0.877990466823031,0.39883298533790934,0.8203166909341711,0.34528675781031526,0.6490988898257628,0.10776583479503146,0.527640398844681,0.12153887946360947,0.9691095542086556,0.8927563938097347,0.6686180807249177,0.11300912103672967,0.6882967341504943,0.3746943383924419,0.9440895033992946,0.6003728076442191,0.7904860481895606,0.3697492006278234
19,3.2883028534965537,0.5784949442249882,0.8995827346726873,0.5650448010856449,0.7199202274120265,0.03214422155594677,0.9392579426042382,0.51216640926241,0.9752698693225086,0.8619401945081578,0.8417184359621449,0.3215278066354879,0.9678010084668275,0.6150319661182024,0.6363216919546144,0.06005179384377037,0.6889312493219283,0.11905819910062869,0.957926386146242,0.6216261567687972,0.9595757308041336,0.6791447686015414,0.7252805122143456,0.33066722846888197,0.6840398426028438,0.23070632460458884,0.8808319821157224,0.39252190045251084,0.7467919590066577,0.242616270206619,0.9752011946380453,0.8856269980961402,0.8849394654199161,0.4277705550358163,0.7803029142168703,0.15274178812888264,0.8632540799486611,0.5190034706165775,0.6208147108180467,0.18334100028180556,0.8281534560966343,0.2861374556331519,0.9549030689808895,0.553563301097163,0.4839718383458732,0.16989899676987474,0.9739681846609449,0.92575698201045,0.6016119427171867,0.09109683947653273,0.6424169358952054,0.44650489677072547,0.958180452037658,0.6185983856618296,0.8231319880747945,0.19465986272837305,0.8153370297947277,0.4088499471674264,0.4828948349109339,0.8733831409916417,0.4296307624781516,0.9113537035278331,0.4102062173133695,0.9675522963655488,0.8145268588675061,0.6219673282208252,0.0575717507920131,0.9288102450085269,0.47742587380420165,0.687631509581003,0.19273223129128464,0.5727636958827109,0.048536689939953644,0.8400921141918676,0.253298664614131,0.5818804671089013,0.0675649645601676,0.9461671477703695,0.7789966640071817,0.858654006204131,0.38917048691559264,0.7967512503040379,0.31824399996962915,0.596020381928001,0.11071985799189471,0.43710391380541314,0.09290674648012218,0.9611894830887894,0.8813053038939449,0.5697952315736927,0.07607494645682694,0.6026158883988567,0.33602974919676193,0.9163252911246491,0.49656862240222244,0.7594476163931555,0.34619502172083083
20,3.2399298731002664,0.5602593724379519,0.8667346989362517,0.5125111389912369,0.7549310805078813,0.049877408574104456,0.9557130137811419,0.6367289269954838,0.9681640458432665,0.8264150930002987,0.8363116188203179,0.28681925535251607,0.9592784945129319,0.5922134849137813,0.6714610425115637,0.08696406531096511,0.6946886518329979,0.12527468329632857,0.9560617329942416,0.6991352224686687,0.959021507904778,0.6941268446824209,0.7454120250509363,0.3161277747701826,0.7028175543341657,0.21994208749700883,0.9045817442876501,0.393905650784145,0.7331823327392745,0.18335602844133175,0.9776455347258749,0.8993941852750195,0.876590440739379,0.33606397842397734,0.8182186023529151,0.21044943361151208,0.862110801689119,0.4952253972784528,0.6133680087977875,0.15450342049448612,0.8557239363410236,0.3268502509868009,0.9518802073685672,0.5428614557818888,0.5290418280010883,0.16978666584787058,0.9843769756698264,0.9371885524378689,0.7139656012326526,0.11847320508652763,0.6374727564152477,0.41994519539126623,0.9677086683119007,0.6916775017644684,0.8349580663537063,0.20625165848026178,0.8270896656317219,0.4122988357755139,0.4637400313035701,0.8388850887941913,0.371697031736789,0.9197823982045176,0.49409642084676203,0.9622979060205892,0.7863688581576552,0.625826211295059,0.06690264604093736,0.917794144852543,0.5641420198315619,0.7057946349439198,0.18688637436232663,0.5949713637812133,0.04471215818397695,0.8623277325608195,0.2386749225505082,0.5638270780472654,0.048060424094101224,0.9457367371102093,0.7805144149758119,0.8515623817810395,0.317011003871381,0.7690383987445315,0.2462084686113607,0.5686705074220523,0.07798555322150635,0.4774853151165055,0.09918861403058776,0.9738488081710204,0.8977356193060435,0.6651620904139619,0.09150343604866616,0.5854677673912594,0.3043550288010303,0.9297954225723087,0.5718719462949143,0.7643485548457226,0.34377305227588445
21,3.1969925479318384,0.6078109860624581,0.9102920816277522,0.5966517524241861,0.7273323785236263,0.04210281467867304,0.9576490667986018,0.5927093699604011,0.9687964204323082,0.8298343688170742,0.7978753214935707,0.21355121245497477,0.9551438544316416,0.5947134140777529,0.5613279421931789,0.07109098591147671,0.585581686965136,0.05882264196176882,0.9550898616454216,0.6512549280037941,0.9452340475307185,0.6082138581106695,0.7268740146545347,0.32221353086287446,0.7222847628947879,0.25646576175998154,0.8838343118962438,0.4194348529312154,0.7135591849846968,0.1788830625979917,0.9790286540624644,0.898246661830249,0.8781830149768088,0.35472839127744127,0.8203189038236258,0.20352658360753775,0.831797519768576,0.48339503518533095,0.6191058048613927,0.1915270586861282,0.8403471508004278,0.3297356132403326,0.9201217435218642,0.4408990101614194,0.5513936628879987,0.18589579963062228,0.9781715265224091,0.9324763065179057,0.6345005138079272,0.09870855203619613,0.6156281413395076,0.4038721815441234,0.9809170525584338,0.7243667896934356,0.8790646530754805,0.2153460481808479,0.8125723436325606,0.4036543180053483,0.5101736602817322,0.8755841273905541,0.4432284794802184,0.9226133101620642,0.45866780748794533,0.9622953562739702,0.7814056710847509,0.5106009574067369,0.03433743027585955,0.9248193243656261,0.5289940074353863,0.6854491381681489,0.18679331269808466,0.5862959891687662,0.04577209138546584,0.8371876834699372,0.26200129486307727,0.536119535835186,0.06030889773899056,0.9499816921862919,0.7903716669981151,0.8552727547855034,0.322916244320635,0.7387558017106092,0.23118884620498678,0.5647155304182436,0.10511318182856928,0.4841443824235737,0.09718333278254182,0.9650537142438828,0.8901738445041779,0.5773173625498565,0.06469201037697622,0.570581620999936,0.2817342788212339,0.9521625959828206,0.598410350904435,0.7499417154189838,0.34351626384396944
22,3.15093528660498,0.5606817221932374,0.8947725047677743,0.5664114626783983,0.7077527298673256,0.03910729178291877,0.9323672004932748,0.47573057648291417,0.9361593939534902,0.7789768482144005,0.8462238011626024,0.3038420637382562,0.9698243590581348,0.6618116864494972,0.5952276774432603,0.06172958728636624,0.610950750968195,0.037076013872162694,0.9645245686534223,0.6949477450023491,0.9642154797022054,0.7424902694812041,0.7096948416257812,0.2913101710490018,0.7635295069585106,0.2749630919281711,0.8686810483048244,0.31655878327204445,0.7363987328078953,0.22641201763713004,0.9758590510917533,0.8938215707304564,0.8744094651163995,0.4197785869652656,0.8395812721730874,0.20136937326824797,0.9008166474385638,0.5724961239481334,0.6061849676105209,0.15465598914460357,0.8690345235414721,0.4192474953974655,0.9491849418546533,0.47250971304377926,0.5011890252197422,0.14624591940836243,0.9804055082064469,0.9310299536734902,0.620633659719614,0.07025352700116624,0.6070062157272181,0.3828006113257775,0.9576855427908574,0.6171199102870273,0.8502259053052196,0.2110272916524502,0.8160199748726759,0.4060638398044829,0.4547216218230603,0.8582505745865111,0.4084930750544356,0.8870182310002325,0.3331949956414305,0.9263144475017795,0.7406858687312947,0.538516970381829,0.021420280987635133,0.9323405257629791,0.533281172166146,0.6647401515846093,0.17775925916680635,0.6194469826480771,0.05002600167770056,0.8174296574251121,0.17097993544294876,0.5565534648718856,0.06162278262167069,0.9408504531409528,0.7669422993068086,0.8546008927895892,0.3614816498410204,0.8085483395362629,0.28756333834280445,0.5610307067922505,0.06912191854578693,0.4427190968390991,0.07917853760366779,0.9706699043286953,0.8943644481167369,0.5694992015275183,0.04812717113847628,0.5618540611527684,0.2596151661885757,0.9144012965040252,0.4997619921002882,0.7458213865763431,0.32020110514856853
23,3.1088023396066213,0.5996869642990236,0.822497867225389,0.5132829800211798,0.7328236405628883,0.05289075744868866,0.9434186401198081,0.5292880941215898,0.9736806738842511,0.8637654329023386,0.8005002121430781,0.2588022154170764,0.9713202022443485,0.7139558208124831,0.5531030025814682,0.0380033294915459,0.6690998011802409,0.12901081566123954,0.9601851765282179,0.7036237391850841,0.9306129909796155,0.6340275700041478,0.710803975529092,0.3273468403410983,0.7577019245186043,0.3035175268029611,0.8693929191278305,0.3959327459103709,0.6892257939209308,0.19916604734399584,0.9768285735877182,0.883875078842969,0.8353644234778544,0.3385409271953117,0.8085789792190632,0.19964931518124215,0.8786999443926586,0.5232121311140154,0.631904139810289,0.22543892485480851,0.8956330702895885,0.4044519916762379,0.9220761278378042,0.5234463157316147,0.5202995665248364,0.19832377387784308,0.9625394348605869,0.8888097796255032,0.6665318939513999,0.11915132743116492,0.6076430278002845,0.4187898876274497,0.9513352878901009,0.6427793663139787,0.8487354209373011,0.273413389290121,0.810760618930565,0.4186109675639282,0.49139151822314975,0.7863381921709921,0.3531856509622334,0.9072059444784663,0.3743261461931735,0.965219490688113,0.8200822658668936,0.5975816154501603,0.05478605479144835,0.927026655447766,0.5447351145596169,0.6627936760795818,0.16391803375031194,0.6245178146682935,0.05197346715382214,0.8145513122645376,0.23191428852126852,0.5138313224398829,0.05844116055533047,0.9427066099608113,0.7585405273074579,0.8143326776121662,0.3171582545388995,0.7592908585365529,0.26627968566781757,0.5824492922323738,0.1204656868567569,0.45050431621990006,0.09646763624948439,0.9477580105515172,0.8425654868484264,0.6030251252896526,0.0653489616705874,0.5639087710948929,0.29893910652404265,0.8956022980100027,0.5288720467876318,0.7421468879553146,0.3304444208225113
24,3.0635730412218964,0.571762192243671,0.9128860036231984,0.650416365231492,0.7743923977511847,0.09891555632142625,0.9468023830340068,0.6159553229604208,0.9416970555766542,0.7972665385040374,0.7869635892526942,0.22738360229258756,0.9600267730690945,0.6702486260799396,0.6570234823641402,0.08986999363945888,0.6607330772609601,0.12226510184323028,0.9382601696520142,0.6374171078038584,0.9385593823541569,0.5813307421810997,0.7921157408401176,0.4178579302453105,0.7660588671123394,0.25920088606781144,0.9130549067546713,0.5094340172994282,0.7515148775149617,0.2192711995056246,0.9701318345385583,0.8674395227012591,0.9171811196582326,0.45336182848908496,0.8440995019903729,0.26836385837607996,0.8645809159740211,0.41922084643733803,0.6921028321172878,0.21475008106685814,0.8260549572139683,0.3147648130199231,0.9260350544406445,0.46576910206983535,0.6089802611160076,0.21752844009937194,0.9516883288234266,0.8722235531465772,0.7295030910459394,0.13770735603023257,0.6812476581702525,0.4598964829984841,0.9858728047457443,0.7992643470847763,0.8810613765545802,0.20228068398319474,0.8377269793536753,0.42923718168439784,0.46388909592308264,0.8615401966701417,0.4748237674523869,0.8889134501430193,0.4481100708226861,0.935545858255336,0.7669154805506617,0.6123303601794863,0.0749759081221574,0.9000844450300259,0.493128151179585,0.7332588398887565,0.22544249955348988,0.6281200097889565,0.045658322430288174,0.8625703640150755,0.3091388652133557,0.5740253966789713,0.0479834842097529,0.9299741052394507,0.7401576964310985,0.889319437088598,0.40540838121162737,0.7564556004624708,0.19983475097067793,0.6280568720987387,0.1161192520349783,0.5232016696955929,0.10036002726010851,0.940945277522207,0.8354137976646225,0.6570703246009888,0.081302599641328,0.6237330445418501,0.32173227358348927,0.939407339006055,0.622479441102858,0.7713640328280956,0.35049915385750846
25,3.0172085352339173,0.6002335345705697,0.9064199880193962,0.5892127626376128,0.7130182703286834,0.06316505108039026,0.929093251428035,0.5562709568685693,0.9428948837557243,0.7888875097670854,0.7847739978789855,0.3117735631961695,0.971514096177102,0.743208506706844,0.6017089938018007,0.0711482879111696,0.6325424223991405,0.10204533797071186,0.8925952038816409,0.5553668939308746,0.921313297524844,0.6366263903114372,0.7324259746715676,0.3389670205782156,0.7679756698628768,0.3370762056481563,0.8746868392093345,0.4074229525622009,0.7588307210767801,0.28017292713194963,0.9894761582901948,0.9497871869779626,0.8681721401221278,0.3443157518601744,0.8349215232321213,0.2925028666573108,0.869571707161993,0.5510322636259651,0.6817165487687005,0.21011537234762,0.7732102332724836,0.2647265411141752,0.8965242243457671,0.4773304273907471,0.5654867441067108,0.21193569825166725,0.9697444561775026,0.9075351603906852,0.6802432736556606,0.12754302318144137,0.6729829315805286,0.4728828837717786,0.9782454601083168,0.7293719430869171,0.85385394533865,0.27236263556961715,0.8171830724509875,0.42936244890842407,0.4771558470597004,0.8687221317921612,0.4025151907930101,0.8770404489287836,0.41160224472770623,0.9371332880045046,0.7487147732191997,0.5521238119269913,0.03406335442325703,0.8539729432193102,0.4188066186461453,0.6790427019345374,0.1706112955879239,0.6126239098195323,0.05798267428716285,0.8242717572341872,0.21654422061442588,0.5350358663443219,0.052970160712577076,0.9544896007869097,0.8108401960852027,0.8373806461375503,0.28970346815060044,0.7509903099354607,0.26301709548177743,0.6172022890525638,0.09590079028634939,0.4831272716946842,0.10055196336531837,0.9600987825215054,0.8640316886387772,0.6214631870673134,0.09093120704123153,0.6076289984866389,0.32120890846369765,0.9302552724703608,0.5794556348038917,0.7501446231865176,0.32941397140712525
26,2.977346765059441,0.6077116096494497,0.907619112203362,0.6254807165807561,0.72753066919992,0.08111754981221879,0.9416315800941898,0.6323268449871817,0.9298659171278045,0.7532222124173379,0.8242075758604078,0.3079866089382036,0.9720160282291423,0.7540325945019639,0.633637280460754,0.09775499742008614,0.6918397755730036,0.14108835181760115,0.938766276241211,0.685182926842486,0.9479608902280627,0.6723591874589625,0.7564271114563687,0.3785694820774077,0.8107317352595109,0.3689074616794568,0.870652527431144,0.430351412549573,0.7805208277560637,0.3088539063089392,0.986632978227548,0.9349216129527882,0.8708070584842595,0.36032847705466936,0.8484930350827519,0.22327228021244297,0.8965981073565078,0.5804214210404187,0.6908519169333135,0.22533079136668704,0.8695640182934304,0.3341492302498469,0.9295670757156779,0.519530772352717,0.6467774252793799,0.2446574114308815,0.9573843414845631,0.888288602114164,0.6885471791154442,0.15253000879138603,0.6831307253550523,0.4674709964418817,0.9815315179363597,0.7827674758348414,0.8823012985500979,0.2933302727696673,0.8394664438864937,0.4534901335557247,0.49094432436461205,0.8677279294767453,0.4207490133280483,0.8908600659842641,0.4820300404728146,0.9297388634504445,0.7258152410161154,0.6077718899823367,0.052627905869188016,0.9055962860361416,0.5364611716336135,0.703619426362275,0.19627587945093464,0.6424589529924687,0.059224521716546664,0.8119388254279193,0.23219009543096453,0.5523807117134931,0.06186398433566552,0.9511588387861274,0.7980401417645134,0.837755542104865,0.3205600130848907,0.7925707283916475,0.2819399216474214,0.6275049078933127,0.10194348488006913,0.5505930340105147,0.11196770554052422,0.947962984838225,0.8503661858553954,0.6032780554952547,0.08686390506302163,0.6194438059905305,0.320691915831774,0.9347369497449753,0.617559670756316,0.7653943221489744,0.34762059987098987
27,2.9420560576131436,0.611786042582793,0.9029002210098184,0.6434756454028872,0.7420942482221768,0.09384876993803842,0.9380246245934437,0.5126963062201243,0.9535944610541092,0.8490184284980239,0.8327797800790362,0.34183043616347997,0.973886262667359,0.7955221003866135,0.5925371292399599,0.10019221050642581,0.5879042170674553,0.0692474299815704,0.9351147489846278,0.669886450846633,0.952626987814514,0.7206988996427985,0.7437586105819787,0.38385389218489724,0.7682078028096977,0.37906511816619315,0.8814185000825389,0.46194989037176215,0.7903967064150713,0.3065332971728628,0.994679715382073,0.9743934096860768,0.8944333386699745,0.4522857358713634,0.8699234386537641,0.36996157392446855,0.8940055096868837,0.5550054184958463,0.6818646427008487,0.24406351507818935,0.8776145686616643,0.40687641005922237,0.9371094547597605,0.5612932455587659,0.6361035089713241,0.26100579463979945,0.9700884674084285,0.9103865649948198,0.7371741002484238,0.1598299630057591,0.6716450697991951,0.4998162859078854,0.9885009850362484,0.7882816194378307,0.9029501993771284,0.28175901334522235,0.8389384185176852,0.473806571314354,0.47029887456212266,0.8592686748236612,0.4330069084657389,0.889378840424986,0.3874549105476756,0.9504540673770544,0.8144893334618797,0.49515701397345735,0.02254093751626874,0.8922205437302936,0.5003456291297512,0.6751232006968002,0.16656478297339786,0.5825300579062549,0.04503363621423256,0.8312698344067125,0.23969628825243888,0.5563506908546342,0.04976487908985179,0.9549194039636798,0.8212524886417281,0.8710630248921843,0.3874065370841413,0.7583522975273802,0.23204569565309596,0.6042792038368197,0.08804476804622165,0.5414046780684105,0.11247020216714801,0.9604971957454526,0.8680473235985673,0.6581474037889845,0.09622838384969512,0.6039914786682783,0.32179247175950637,0.9570523745483618,0.6125064438350826,0.7578588880685225,0.34437175668257897
28,2.9034400195418666,0.603264515167325,0.8976516191207649,0.583755519372476,0.8099661806540067,0.13233247777672194,0.9303739245811311,0.5746379262797038,0.9206828912878062,0.7815521301141312,0.821017154234888,0.3543351367292503,0.9717687578206406,0.7734171233730488,0.6458884230853681,0.07378027263642559,0.6409300319420014,0.08993979857133734,0.9477269545269245,0.7133402961624201,0.9302848865638583,0.6451169583874511,0.755434509336972,0.40503202903970553,0.8268091329414994,0.43179731157440854,0.9292242151575233,0.5619266192613093,0.8105365870715154,0.326600894466086,0.990830122652037,0.9564064201510539,0.8931400140822456,0.45810480819321414,0.8644126873088049,0.3255128340184108,0.8890663426782098,0.5656736655464888,0.6778861382831136,0.22917520085328508,0.8526900076055015,0.3771339700419666,0.9615588303848105,0.6284956232641118,0.6677417427394285,0.267026225572389,0.9450110154990209,0.8646489917336228,0.6690487403258695,0.14326555513112937,0.6993428045221595,0.52492401131522,0.9783125532379024,0.764511712160545,0.8880834431743998,0.3517839834889673,0.8450155448451261,0.4779343516746252,0.45338004024744727,0.8411790454243405,0.3393764036204962,0.8780995847874505,0.41985566562777565,0.9232068375705164,0.7530937684382526,0.5503263886603253,0.024460762348565576,0.9029305053795798,0.53969985753167,0.6796069420249992,0.18344407523293244,0.6222604273219868,0.050445907377563805,0.8746413681984132,0.3047625025609375,0.5700246272908066,0.04947086184869268,0.9480186877164639,0.7970352898150151,0.8615763789059545,0.3492926009816549,0.7641294352057628,0.24351503045902012,0.5921391997898664,0.0887540292066445,0.5779827351203999,0.12132421438216234,0.9343514942991527,0.823239332288545,0.5919893152410707,0.07900915973695839,0.6136153602096892,0.3148801008341833,0.9324829415519623,0.603315546779984,0.7588089597054856,0.33805417272616967
29,2.865208847025593,0.6349159027104917,0.8990193479140156,0.6201717193459655,0.6584839267361583,0.056840043584881254,0.9545504415134489,0.5171295290853054,0.9324011207099764,0.7732420840306118,0.7987131096927527,0.3291301417050918,0.9700518075181291,0.7836018913715028,0.631731463977086,0.09490716855908614,0.6418620021023778,0.12635152726486293,0.8968556335990934,0.537334691123881,0.933723165286587,0.6819808731620244,0.7076024625912654,0.3604239638883309,0.8169438896229123,0.3872794513612665,0.832607079691637,0.3900553527061587,0.7488897317774892,0.2690784005461997,0.9936143270718913,0.96949715380862,0.8750796345041739,0.41626678585172905,0.7461539999000649,0.15431117264722186,0.8671626211033554,0.5301745598262864,0.6631371408531422,0.26198830990706407,0.888605543164618,0.34315804413670087,0.9217031112391281,0.5604873271654488,0.5234190090546595,0.21638982670838425,0.9678663672606783,0.9061587409769213,0.551791743250866,0.09274754472372108,0.6562085908017401,0.48099049163931323,0.9829335305460423,0.701065879962618,0.8740789774593658,0.3250477758380812,0.8124144362571353,0.4402152018861955,0.48408735186703433,0.8426736409581116,0.36350159719377056,0.9107322128307265,0.3505396762504408,0.9340903247739757,0.7468808264331048,0.5418673454087994,0.032887953406687855,0.8555558663180587,0.3833076049317059,0.6398092967818831,0.16011062323605088,0.6126988821927262,0.04648408432235927,0.7639764115058052,0.1861285119033098,0.523923408585842,0.05905870532512187,0.9509263462144343,0.8046485411679958,0.8456045244760537,0.34957342990300916,0.7172528213056473,0.19297517702762265,0.5840232618528458,0.11926232435977233,0.42322280456935163,0.08105013786922405,0.9570715297038023,0.8594850544528269,0.47594945530804966,0.04773373340345177,0.5723219862797005,0.29432760134838565,0.9474240349039708,0.558204188797293,0.727729119664988,0.3131199872962296
