epoch,train_loss,train_accuracy,train_1st degree av block_rocauc,train_1st degree av block_prauc,train_abnormal QRS_rocauc,train_abnormal QRS_prauc,train_anterior myocardial infarction_rocauc,train_anterior myocardial infarction_prauc,train_atrial fibrillation_rocauc,train_atrial fibrillation_prauc,train_complete right bundle branch block_rocauc,train_complete right bundle branch block_prauc,train_incomplete right bundle branch block_rocauc,train_incomplete right bundle branch block_prauc,train_left anterior fascicular block_rocauc,train_left anterior fascicular block_prauc,train_left atrial enlargement_rocauc,train_left atrial enlargement_prauc,train_left axis deviation_rocauc,train_left axis deviation_prauc,train_left bundle branch block_rocauc,train_left bundle branch block_prauc,train_left ventricular hypertrophy_rocauc,train_left ventricular hypertrophy_prauc,train_myocardial infarction_rocauc,train_myocardial infarction_prauc,train_myocardial ischemia_rocauc,train_myocardial ischemia_prauc,train_nonspecific intraventricular conduction disorder_rocauc,train_nonspecific intraventricular conduction disorder_prauc,train_nonspecific st t abnormality_rocauc,train_nonspecific st t abnormality_prauc,train_premature atrial contraction_rocauc,train_premature atrial contraction_prauc,train_prolonged pr interval_rocauc,train_prolonged pr interval_prauc,train_qwave abnormal_rocauc,train_qwave abnormal_prauc,train_right axis deviation_rocauc,train_right axis deviation_prauc,train_s t changes_rocauc,train_s t changes_prauc,train_sinus arrhythmia_rocauc,train_sinus arrhythmia_prauc,train_sinus bradycardia_rocauc,train_sinus bradycardia_prauc,train_sinus rhythm_rocauc,train_sinus rhythm_prauc,train_sinus tachycardia_rocauc,train_sinus tachycardia_prauc,train_st depression_rocauc,train_st depression_prauc,train_t wave abnormal_rocauc,train_t wave abnormal_prauc,train_ventricular ectopics_rocauc,train_ventricular ectopics_prauc,train_mean_rocaucs,train_mean_praucs,valid_accuracy,valid_abnormal QRS_rocauc,valid_abnormal QRS_prauc,valid_atrial fibrillation_rocauc,valid_atrial fibrillation_prauc,valid_incomplete right bundle branch block_rocauc,valid_incomplete right bundle branch block_prauc,valid_left anterior fascicular block_rocauc,valid_left anterior fascicular block_prauc,valid_left axis deviation_rocauc,valid_left axis deviation_prauc,valid_left ventricular hypertrophy_rocauc,valid_left ventricular hypertrophy_prauc,valid_myocardial infarction_rocauc,valid_myocardial infarction_prauc,valid_myocardial ischemia_rocauc,valid_myocardial ischemia_prauc,valid_sinus rhythm_rocauc,valid_sinus rhythm_prauc,valid_t wave abnormal_rocauc,valid_t wave abnormal_prauc,valid_ventricular ectopics_rocauc,valid_ventricular ectopics_prauc,valid_mean_rocaucs,valid_mean_praucs
0,8.885010397149427,0.053583695901076256,0.5694859613182305,0.048567033663905954,0.4894258534584275,0.15407013603494998,0.5141225807584938,0.016409648504407532,0.5869510906996134,0.10168792795729639,0.4940419866278668,0.0684394873286529,0.46292388377862814,0.04365815921351918,0.5930026912370843,0.1122498529611532,0.6232736621415222,0.03224772439095836,0.5116875123273614,0.25634634300130016,0.8369882404421823,0.11330453629854627,0.6861569765757098,0.2518726934118205,0.5187135837239563,0.26919706588063325,0.608166369858494,0.17694865479059604,0.5554862813667537,0.047195775762882114,0.4752922086587796,0.017788265644539072,0.5328048759247698,0.01889062448059539,0.5265331439032048,0.019030889169747656,0.5131192118507129,0.02834775525805227,0.5719614325485687,0.0195378045445921,0.5036581084580452,0.03585214448540502,0.4814734405494955,0.03466890403071464,0.47461698090633814,0.02533281303030832,0.46225746793409805,0.803105127956036,0.58963891365251,0.049662749186469755,0.5555773570981887,0.06285878361178562,0.45140471177621333,0.091919150532924,0.6249622304344459,0.08315671949754128,0.5486565465929517,0.1104572878010864,0.05357142857142857,0.5021596413635406,0.15882852503926723,0.5750935828993414,0.09440356677755757,0.44654707322118037,0.04312781183914157,0.6038643936175861,0.10579397069019891,0.5192586706510217,0.23743374384926982,0.6682434718403962,0.24683530890915703,0.5208648603538444,0.2703725991813347,0.6268152473470867,0.1857467703682881,0.47395431645358876,0.8029640347837024,0.47769525477269237,0.10430004702461018,0.5966097279595103,0.07303285863792788,0.5464642036799808,0.21116720337276867
1,5.6330045673030265,0.053583695901076256,0.5440078862132094,0.041816265385819396,0.4857783499177326,0.15203824564552793,0.48465032344386094,0.015558138683301819,0.5837630666581297,0.09682107553651535,0.47004812926635153,0.06697861315501719,0.44588113959060177,0.04326220994749615,0.6151310603413669,0.11662250733307282,0.6429917181318838,0.03472943501816705,0.4740410124684248,0.2260797519024782,0.8290768934965511,0.08437101955396159,0.7362567178375273,0.261203635356406,0.521066015664734,0.27373868275849195,0.6486922103770129,0.17854320981368318,0.5545134105826108,0.04497086579912174,0.5018561811224891,0.019249542161562043,0.5041924458937677,0.018742996796752273,0.5149717615728095,0.0169469879432221,0.5201831564410846,0.028211809706401764,0.5344731586273679,0.017749315707412595,0.5254740672896612,0.04013693167860645,0.4854626953988498,0.03425044359426802,0.45772951235417725,0.024356921448107294,0.6412144429715528,0.8774257416168199,0.5142049753153458,0.04257400754220637,0.5743525006254881,0.06553787697244239,0.4802838725308808,0.1022442161490171,0.6268154954137695,0.08261620788743879,0.5524856370202682,0.1113620983367895,0.05357142857142857,0.49132633310266666,0.15255702875344854,0.5891586638303726,0.09215672461619968,0.44975039213320467,0.046199605652183826,0.6094695813200234,0.10419702246825038,0.47523497314702173,0.20745399218041838,0.7195793188414431,0.24043869965977754,0.5248702292199845,0.269548992184909,0.6665056360708534,0.19023037497953107,0.6390392167077668,0.8755992168977886,0.4942427634735327,0.11496268624782219,0.5861461550866486,0.07246949615843681,0.5677566602666834,0.21507398543625153
2,5.541163224954112,0.5541561712846348,0.5900875474620901,0.047126857523263926,0.506923659394326,0.1588056535197796,0.550182289417479,0.017753931999356563,0.6516333256336252,0.11705473149935429,0.501890609107019,0.0716462954334047,0.4514077557564434,0.04351241371380271,0.7531616033386181,0.18175351292871986,0.6911781819101739,0.043606885564963255,0.6000927892194342,0.3040563636944482,0.8982740788051705,0.13332238238962774,0.7598350798985463,0.2694965368867058,0.6166006892632274,0.3320129434218519,0.7054951092185635,0.20538535966865015,0.5918677310932248,0.05022622566103501,0.566901222899824,0.022558911654062527,0.5048368707479347,0.020439019636909684,0.5636584143169613,0.019756543761985643,0.4868661954285633,0.025295952317158202,0.5742727939841433,0.021290283649180813,0.5345651580745682,0.04448718053352399,0.4945631252384963,0.034996059069375376,0.5356987739344806,0.028761760658004246,0.7115994266454445,0.9125954457545422,0.4367730439777894,0.034445098612323366,0.626997407090858,0.07273617443270067,0.5388897996026354,0.11577645445668239,0.7122281941218953,0.10516798318968268,0.598388180577094,0.12718766524559613,0.548992673992674,0.49801004904173063,0.1553949022137995,0.6634555186264581,0.1083973119870478,0.45657824996552676,0.04572611273604775,0.7396097441990123,0.16717609190410473,0.5898362129400522,0.275693190103272,0.7649389102143995,0.26699502548887355,0.6196321074885945,0.32928522035167107,0.7260016190735041,0.217937086361076,0.7025252401976446,0.908723874603046,0.5196328504792616,0.11705493821264389,0.6909276419436071,0.0914420761632082,0.6337407403790719,0.24398416637498094
3,5.390644648504407,0.4517212426532326,0.4855513806187276,0.03429972945468763,0.4713820697893182,0.15409725519600453,0.6443548469735053,0.022934216886139443,0.6882285907730141,0.1117053421287704,0.6633322966010996,0.10768683419509598,0.611461784104814,0.06575901986414545,0.8461388160538026,0.23928067042552395,0.7303219461599516,0.03878890133988797,0.6944980947936236,0.3295104345092946,0.8572197187518646,0.08321340430347668,0.7535235890349962,0.2593111076528674,0.7304124723111097,0.3935154179330159,0.7917542983595555,0.24360928952049166,0.6170422484749819,0.05305595497723283,0.6581396510673768,0.0260745492872441,0.5538590464655776,0.02207158900818359,0.5652102726879671,0.017759615604374064,0.5363141634811825,0.028083919977152774,0.6783648172244748,0.027402623874123712,0.6625361274815649,0.05766135425104431,0.5069192079653977,0.03654588276405134,0.5701839730184702,0.03386390735311129,0.7852460160422258,0.9461888997871861,0.38323572354497437,0.030306526007720193,0.6817342524508698,0.07739736348746772,0.6153331861522124,0.1490163321926455,0.7473863460636587,0.10481645831927944,0.6492475902387526,0.13681320741852662,0.49107142857142855,0.4520795097832737,0.14280247934825913,0.697346068212116,0.10878201651123279,0.5803199763858247,0.06138463151514344,0.8380643352094728,0.19705208824122933,0.6701992535470322,0.2888780608927288,0.7765464482385885,0.2894132885580375,0.7244087292756204,0.38937984988857477,0.8038273261030305,0.24624943060879947,0.7771864242655633,0.9431294837317388,0.6040201706525349,0.1462420767931501,0.7311656722034081,0.10172759471120123,0.6959239921705878,0.26500372734546324
4,5.217267992095941,0.3558506984199679,0.3820685798970647,0.02949354794669652,0.3410307933133725,0.11657557729608191,0.6642322984203292,0.025048013304935588,0.36252536747240044,0.052592855140708696,0.5705461460877888,0.08287804450194172,0.6121905894877852,0.06869881706415752,0.86162291552531,0.2601291324021898,0.6901201013176993,0.03315509012381286,0.4101566943899259,0.20764150436926973,0.793296764740333,0.05817673020929573,0.5970038030231715,0.16007444746779267,0.5931955708974016,0.29801038025847004,0.6546203354080852,0.14127489623545614,0.41223160251288954,0.03039677280644511,0.4334544781374748,0.016292667779560142,0.45390570362887556,0.016333734087244083,0.45023693752627336,0.01395240755729954,0.46198430155442133,0.027567589799994893,0.3976895842159414,0.012247610373756535,0.6625574172782775,0.059854470817965535,0.5265138105108149,0.039643136449405016,0.5161798395128092,0.02933990236393793,0.8155740360699211,0.9556940069633303,0.2827733243289095,0.023760386461138497,0.4696332281963603,0.04974595568570373,0.5817226229973924,0.14091500618331718,0.6642402808424261,0.07750150204750404,0.5430113750849427,0.11211089576657078,0.44207875457875456,0.342166059913149,0.11339251508062304,0.39896225076124536,0.052960077423781976,0.578708890650855,0.0612484492581718,0.8513720928689004,0.23013894846906274,0.4086926641743994,0.1862539054005268,0.5855304874415912,0.14733637277495065,0.5879092021809279,0.2939195838492381,0.6535851957062405,0.1387734730786504,0.8030632508624092,0.9514165285178339,0.5686068011769067,0.13536444371687126,0.654715533888248,0.07583007716988634,0.5848465845113521,0.21696676133996337
5,5.1492068174094445,0.4550034348523013,0.4115169136422454,0.032287848343995736,0.3804192091892944,0.12412418134513833,0.6622800340205265,0.02643218787153857,0.4150783955270474,0.05818306652344545,0.6209619465035893,0.0954440291340402,0.6256478949590665,0.0762138959867884,0.8968822935941707,0.35143254985520805,0.6219368313869836,0.024527474498069232,0.38693491969875543,0.20326494395168887,0.8874743360524042,0.12153378819016745,0.5207167036920127,0.12869354924603532,0.6421777582427428,0.3355214406447119,0.7076034028149837,0.15635916619392648,0.4262162642699434,0.030081135744672464,0.4503715784092379,0.017591745933009197,0.4857570049383576,0.017862863042205204,0.4486685939383857,0.013992716955645395,0.5285490564560332,0.029598033445117824,0.37695068994734615,0.011828459536000684,0.6922096723456836,0.06041368184118504,0.5212431897228484,0.03775794321162946,0.5544309857897052,0.03049003342036935,0.8213888893882666,0.957773873653647,0.3108107289325631,0.024990482872176468,0.4919503350838411,0.05270276935753397,0.6812500359090151,0.1880925763114837,0.7909831093353958,0.13493994966014247,0.5689041027329794,0.12378275506553972,0.4606227106227106,0.3764782220617585,0.1236048165509741,0.4468451743963805,0.05627535336294626,0.5996072204219525,0.06725963892047816,0.8819807651462859,0.31454745206364104,0.3935781420899149,0.18433242266868882,0.5066797669608736,0.11766929475050858,0.6316430677645488,0.3261499900188078,0.7068305028772164,0.15682992901280454,0.8079293183388849,0.953407491020833,0.671762637546018,0.18449554073601745,0.7642439804994231,0.12327264939092436,0.617052618009387,0.23707677986332942
6,5.097051159788312,0.4068391725822456,0.4418610154562339,0.03651807772404822,0.37194569978576814,0.12244670789402112,0.6822870386771227,0.026081941185378044,0.4692033490546515,0.06757457331968497,0.6534333591545882,0.09583735216215716,0.6495224022188659,0.08007885838541978,0.9007881887784698,0.3667112227302601,0.617366625241515,0.026168899679780085,0.43215317677913856,0.22191820883802735,0.9302378210894111,0.23582764403959405,0.5775946531337824,0.18431790879472754,0.694566118472522,0.36671845654526425,0.7667471283470335,0.21403401156902147,0.4458637840270388,0.032469485114447194,0.4545315182942228,0.017108252719383907,0.49369374680132144,0.0179742612721165,0.4400372715767136,0.014148904530256128,0.5472125530617427,0.03462935383523926,0.403737403921806,0.012252102620038608,0.6929031114386168,0.06435674080844217,0.5199624961966672,0.03702310983513855,0.5353777658511433,0.028990743253505036,0.8234790300335347,0.9588400405835609,0.3657742046838288,0.028781606541890915,0.478084596913812,0.0514238661564308,0.6941327847536005,0.19080815314146074,0.7995612526421463,0.13060533033281566,0.5882243739401962,0.13569058568933745,0.41872710622710624,0.37312773916619024,0.12552648167625144,0.5146902730382856,0.06947650571583153,0.6219873612451736,0.07375239001152753,0.8868193463601125,0.34299799029221795,0.436703979088272,0.20565824243461162,0.5638474436339804,0.17797140222769636,0.6808125625904082,0.34847434556674867,0.7686086781170819,0.2203156771560127,0.8046724011239644,0.953353815040045,0.6846880721334028,0.1881702345980339,0.773290288166921,0.1187737082422721,0.6462952858785266,0.2567700720873862
7,5.038328523190365,0.27013205098847415,0.356169357624358,0.0274263079714869,0.32743236074884785,0.10856219738916356,0.5518681280073545,0.018324360700672206,0.2697550130936307,0.04454154096455607,0.5919691244470882,0.08392705950974594,0.6362444695921136,0.07957034173480328,0.8615451787500901,0.2163833441464905,0.41439571455224467,0.015607107719462481,0.3054173540567413,0.17671707271065762,0.8571323121531637,0.17217942955509938,0.3706532981098649,0.10619332934031309,0.4744809606509024,0.2445025693238636,0.5074158784172487,0.09787735507732545,0.3782297602361543,0.027650496015689224,0.33575423333851173,0.011953835562954127,0.41166171178533817,0.014777861998690174,0.3724476950294823,0.012245577444060308,0.4404367850456645,0.02238394435684056,0.3270800550747443,0.01067958701480491,0.4850149376165508,0.03479458904241077,0.5268319456421791,0.03799808724102907,0.5447409228856015,0.029913789690807276,0.8122429101674253,0.9561349460483572,0.29773141576660633,0.02373596787161943,0.2911036522064464,0.030570863338448943,0.5955550201292187,0.14834883078223582,0.7543928158897107,0.10407477637165168,0.4851001115191586,0.10581759884900886,0.27701465201465203,0.33879491731102884,0.11079690560301962,0.29377454945678816,0.04304996797219599,0.6147258945808052,0.0751671639710501,0.8448024246004353,0.184587874555558,0.3266819352552529,0.16835986730458186,0.3566363593807185,0.0988313181651522,0.4684367697785691,0.2454175970060045,0.48941348039430577,0.09200783933776295,0.7950027450638942,0.9507329077264103,0.5640535352395399,0.13555253314358812,0.733644594130806,0.1009252162297141,0.529633382290195,0.20049356281954892
8,4.992262511642441,0.4393557743683688,0.4567762014651139,0.038805401241775034,0.42011825413238413,0.14081178147672024,0.656597259327465,0.023891550824657114,0.4240339932089282,0.0607299307395075,0.6678258115155719,0.09754882983891175,0.6982671103224333,0.10232177927643572,0.9004685949304542,0.31573937211950776,0.6182136272937993,0.027418630545512853,0.4646236478648962,0.24583469361397864,0.9397227078144372,0.26220211193032494,0.6625527669315979,0.28340438522892314,0.6663752742448293,0.3635161538956516,0.7748343601204484,0.24651275087193758,0.49037542666687195,0.03648979546160211,0.5058034531915229,0.01944024808776799,0.46433540504982573,0.01724569458267047,0.41457960074303374,0.013761392669288192,0.5861792697944918,0.0350816617391327,0.39773289505537734,0.012401286732744123,0.6484038735264419,0.06487116866286709,0.5353693141225102,0.04363970378167756,0.5846447131400995,0.03317825729783693,0.8239363759814746,0.9593754412062387,0.355794638219325,0.029299751286987342,0.4123646697512915,0.040195818826923246,0.7049488246108349,0.18645077666224502,0.8114353147218701,0.13318916098146993,0.5957893845832344,0.14197620479938133,0.47710622710622713,0.4101218521527214,0.1398377426628853,0.4737158092624214,0.06457012627144414,0.6670665204426365,0.09215500899989379,0.880382423803961,0.26693738552038226,0.466622691495253,0.22676298582894341,0.6427784894162105,0.2641105010972892,0.6535231445421164,0.3484327911255229,0.7703464057444962,0.2476801661150691,0.8052458225665018,0.9532990463307097,0.6885259623875523,0.1870478486797095,0.7851535525700983,0.1234114612128943,0.6584984249439972,0.2649313694404313
9,4.922786500324557,0.3247843676055263,0.39557526444587926,0.030008479200472664,0.36164355128623726,0.11848397691352602,0.5978690326840058,0.019991042011349977,0.3258964529579083,0.04868042184497376,0.6560772404334477,0.0949105803758388,0.7335217329190327,0.12137701075776469,0.907039703008581,0.3747947487896248,0.5605074422972934,0.024144353595086588,0.4148355289622173,0.22971986846869133,0.9470101639177605,0.3031182137096423,0.6821187314542846,0.32588335391190437,0.5857108839696684,0.31015615570251415,0.6760227420787988,0.17214186084988936,0.44801553445780745,0.03257405837911914,0.40634454992098956,0.013868819333685285,0.4090039616721285,0.014447476968626418,0.36519138962135705,0.012520332383075301,0.535928346182046,0.028202220428270624,0.3765468967499849,0.01269475263306687,0.5386380265314316,0.03687891117319208,0.5332992924540196,0.0413358741769004,0.5246336842797034,0.028323367743545838,0.8123270780016825,0.9576198482908407,0.34067835800707036,0.02682221927029791,0.34643390606830404,0.03473927932359768,0.690027177165118,0.18051231846477028,0.7895299432520176,0.12181034206381212,0.5540898746214361,0.13762073654681775,0.3456959706959707,0.37197360371473553,0.12214561631488498,0.3571405558985308,0.04921382952156084,0.6947813965113072,0.10880529164863209,0.8859017416237454,0.32714545340049955,0.41889526187981585,0.21204093957911313,0.6794222536194262,0.3089277240041216,0.577113191276288,0.31053066835116544,0.6730035567011816,0.17459504921273195,0.7916050226472324,0.9508428370818458,0.6509303627904092,0.1661848099608207,0.7635942713954325,0.11486710322017939,0.6240328380052822,0.2586635747541414
10,4.834110371639379,0.4272956262880696,0.41374902684447845,0.03198117677863387,0.36984831344291985,0.1224612125225009,0.6879562724979762,0.029606730741949788,0.5127213651334814,0.09032524913128065,0.7960245743217982,0.18772557720286773,0.7813415058365588,0.14761280881438488,0.969226268918537,0.7361120549383334,0.6135986756600355,0.028137995813170592,0.5814572270862848,0.38789609427144295,0.9256125644499351,0.22879099826560617,0.7950164130662007,0.443450392348994,0.7246904023563981,0.4918192790459812,0.7717247505474842,0.273518205383678,0.4755186802575035,0.036436211513228886,0.49548281924638604,0.02020050013608157,0.4522167679079102,0.01649734801245044,0.37830294433466793,0.012486662265554255,0.5274594666419895,0.030158218739157392,0.48916756188343524,0.016103725298055864,0.6765261308357939,0.09454662732958655,0.5309423187806472,0.04308072502143276,0.5545254556882464,0.032936490259964965,0.8179542084489142,0.9590227206508788,0.36390762627099604,0.027477490492368393,0.4618156573783506,0.05718549283744684,0.6596560044701987,0.15703130202408114,0.8268240431116469,0.14942296586283074,0.6167876683488435,0.17970460206303493,0.4777930402930403,0.3758193178285244,0.12464733887864621,0.5793693570534818,0.1167118529829462,0.730404112658577,0.12003531557078431,0.9510317660489567,0.6339486207011792,0.5735719446587808,0.3414880996871293,0.7853947323624788,0.4183994775615913,0.6991800656503839,0.47006988380773207,0.7525275374008903,0.2607950051327598,0.7925398380357656,0.9506012941467232,0.6155405271690325,0.15025347069851544,0.8000467253007166,0.13707857080648186,0.6959478112879626,0.3385480845431354
11,4.721068968982899,0.5666742996717807,0.4994636019906843,0.038460920773147396,0.4286905788036397,0.13925620146902384,0.7092904656157,0.030064161396720322,0.6784743399858576,0.13317975501536228,0.8148545803212579,0.1939720788237086,0.8050121163818472,0.17559261675018376,0.9469041455192138,0.5809809267166628,0.7005353647468797,0.04021569184605576,0.738975809850172,0.5309055108781446,0.9478672126908636,0.34284531681038144,0.8813920595986235,0.529089738209305,0.809050709280417,0.5640853397644359,0.8960562219373586,0.4489358732326579,0.5964202674549192,0.04679753071674939,0.6271060615289225,0.032116400792293595,0.5479284286483692,0.025681940812424763,0.4645026447533175,0.016088638768984437,0.6010621839726843,0.03591991386309155,0.6572822731949404,0.027903145895486474,0.7504125875705822,0.10347149604029493,0.5510094591618716,0.04335519653674656,0.6650036313512839,0.051127839665330486,0.838381537532235,0.9633456107743793,0.4432772063403895,0.04459348297787952,0.6586896854883407,0.10044332662462119,0.7537644872247643,0.24210264558025632,0.8419926453033961,0.17512683820290237,0.6982740854166122,0.20946881996063815,0.6646062271062271,0.4270832706521848,0.13959538147851408,0.7133886021731956,0.15083264942280297,0.752418513858246,0.12910787108829258,0.9297592656507195,0.5142488813812788,0.7220913875649465,0.4612735268818133,0.8733727476998238,0.5121614734239185,0.7858551240680983,0.5349030128287992,0.8806427195758846,0.43707202148187024,0.8097882020177586,0.9530156748641185,0.7177702528873098,0.22457191558575942,0.8072705394911491,0.15361013048383126,0.7654036932399378,0.3827629580837272
12,4.632508494801016,0.38493244790474007,0.3716981630277957,0.028253146664665725,0.3862922160287894,0.126459366331875,0.6416960784170208,0.028153572061100744,0.44929583044889065,0.06791612666531688,0.8820431782990478,0.4501970238299038,0.7928062621610262,0.22380342202583975,0.9298502416975697,0.452219380505332,0.41511132614243296,0.01603063386358556,0.6432631206695872,0.4561734999735336,0.9042839178488475,0.19052616255238417,0.6638440132048654,0.3436668309769456,0.7155535273958648,0.5059383068808672,0.7700517261038429,0.2373546209794128,0.4747183345711165,0.03673271426743536,0.4731800733507209,0.019317758618131196,0.4196389814068023,0.016036946258831414,0.3626243790880528,0.011868603578847961,0.5104961999606116,0.02938472817871756,0.4815155389457121,0.01564098775047154,0.7029807453340587,0.09928772006808467,0.5409987509939096,0.04289042342692105,0.627251479923093,0.04947752450390826,0.8347484901679711,0.9623191449203218,0.36776048909479997,0.032285260907407146,0.4495758662334072,0.04671059060316268,0.7296750084378545,0.26606210632424954,0.8511225402103699,0.20812152628357633,0.6071139436727431,0.18380844922225295,0.44963369963369965,0.39718586715608106,0.13302487815171485,0.5052945412369922,0.07281835651218334,0.7349163377344181,0.15985670751037173,0.9235409586895343,0.3796932729456608,0.6455485110058092,0.41320297910973824,0.6449448787566707,0.30650440622337444,0.6958947646600645,0.4823191293075705,0.76052003238147,0.22634471028099742,0.8120644009840698,0.9550352120325152,0.684287461750801,0.20980224803319822,0.8291073813570184,0.19788963077849547,0.6939368305193573,0.3214992300805291
13,4.502318257912817,0.6201816655217159,0.4618633470438658,0.0345950444951259,0.38779769045696566,0.12339139474718884,0.719347308001411,0.03436516739504903,0.7847108116989812,0.18662509083057163,0.9191480304628009,0.5508302607753977,0.8783471718901896,0.35442615879687134,0.9260026910691863,0.43486654270529057,0.6343858800314957,0.02626360016839777,0.6782788884380779,0.47522062297952783,0.9129464532369173,0.1749924663416275,0.8272772376583605,0.4262855001532588,0.8470707090502271,0.6462847995542754,0.9097711871771638,0.4440749949325351,0.6093889480807442,0.04458166553910506,0.6695078835942263,0.033983208462438186,0.5825136789558442,0.031121166149028576,0.46622104128123104,0.014952173464078075,0.6038018189885701,0.03333044731429298,0.558714746111481,0.02048487519968393,0.8096834685163009,0.1511853038942148,0.5640249263288131,0.049083206275594565,0.6655466489620738,0.05503075282199912,0.827790649917867,0.9602055431874329,0.5434192978514493,0.08830740875555432,0.6892272264993614,0.1052493034664056,0.7905339129629039,0.2860481937629706,0.8817724134080291,0.22618263629540802,0.709225706210168,0.22266546401716011,0.6403388278388278,0.3903244376247355,0.12402942715782783,0.7953462371358888,0.21096497372337306,0.8322283938913404,0.23602627742049878,0.9138920047257474,0.3566835862415283,0.6625251770639823,0.40277120498526264,0.8048004740788657,0.37982124853796095,0.8146122176477134,0.5887286301517126,0.8988470676942231,0.42780157560845083,0.7991389206343192,0.9475237671330192,0.7694131566012193,0.2772792099023524,0.8476522603881096,0.20676212733463475,0.7753436679532858,0.3780356389269656
14,4.464227500776054,0.6231585375162202,0.4592896330041212,0.035760824724965265,0.32297774710452115,0.1088972264631785,0.7303898892869011,0.03983716653692835,0.7528819960190269,0.28312603037311446,0.9166246350528416,0.5065175733784382,0.8824315276426212,0.3216967108548926,0.9270225874861925,0.43242627817222984,0.639582839235627,0.036385943067310016,0.7411952815474503,0.5174711379581363,0.9358070910951352,0.4262892078380076,0.8086664412033967,0.5065550418346375,0.8121579930177802,0.6038087908799876,0.87868716521917,0.416693897638384,0.5778051358737688,0.04622140319734572,0.6831591727067977,0.0529177300567247,0.6413244806417989,0.03815384070728862,0.43927895160015257,0.015302653384817094,0.569002095182504,0.03250280626414849,0.6344060173697271,0.02385943205977491,0.7509012970265541,0.14483572558390417,0.5694734842563034,0.047421615329177796,0.7437697259888482,0.08276254846131008,0.8297196867910597,0.9616639120143969,0.6507661020124363,0.13947053674064763,0.6585312843261567,0.10778066994173936,0.7996329212384191,0.3209114925734392,0.8978213480592705,0.35206503410203877,0.7130854270366142,0.24449389741248015,0.6563644688644689,0.3393276569285234,0.11143727809117976,0.7734814928333654,0.28057371910259554,0.8322801037644788,0.2266001974118126,0.907269653002708,0.3592596517717092,0.7191466873656776,0.44190404024832075,0.7764714424934677,0.44157624030208037,0.7800472905307668,0.5556721741986003,0.8597064041078877,0.3846672034154577,0.7970587195943646,0.9507070340100732,0.75194435099246,0.2729851137055472,0.855131926612333,0.2887777845927878,0.7628968843841849,0.392196403350015
15,4.300291517528629,0.4638577207846729,0.3946746804197123,0.02924789723291263,0.2905880261011245,0.10266434693613505,0.6407119863800783,0.027183043237998333,0.5952749556323482,0.11497890783129651,0.9212487833667503,0.5304013084878333,0.8607501026210819,0.4927662517914635,0.9512502692664219,0.6571768818445634,0.49111683473894246,0.018810796895867787,0.6505280242606974,0.45723023014497644,0.9580094721790653,0.6689756647035521,0.6446898212515907,0.3013226726683033,0.7070686653371644,0.5197724593295322,0.7642312319676283,0.22638965918747722,0.4410106471675078,0.03739227588426298,0.4479321433973059,0.019375219741431728,0.5236030651043272,0.025613537477110582,0.39412069726472787,0.012913125799022793,0.4771913402286905,0.02870126184169265,0.5397814788476669,0.019719505854707806,0.6913355741206444,0.105856384802448,0.5613288046356113,0.05136509085742128,0.6763038952350942,0.08712453197777956,0.8624604635898938,0.9691539290537478,0.524473899507224,0.15153040222562505,0.41345228472579915,0.04181514877548336,0.727021622544725,0.3452477459223888,0.8567864814941192,0.30003200243774464,0.6298868611624423,0.23491704751639925,0.44711538461538464,0.31628526441415694,0.10602504957703582,0.6358290804886948,0.11558936135000304,0.8151285852178709,0.33553570468830923,0.9390572731375776,0.5727185857516617,0.641533373320059,0.39192546896029234,0.6137065817807321,0.24422086304047252,0.6707412095248693,0.467399333410426,0.7576480765465221,0.22838264014416743,0.8291958219653929,0.9589966044749798,0.6523573701345762,0.22043410419904702,0.8142617609235897,0.2611868597237672,0.6987040361321856,0.35476496139274205
16,4.223577868600864,0.566216319364934,0.342014843776986,0.028651774664719156,0.2804887851128186,0.10183723235969704,0.5768539649869642,0.022790277604932296,0.5286547200920286,0.13081360524394395,0.8907708680754237,0.6190680367474615,0.8204970138365998,0.4837453037941459,0.8196302818822776,0.24498879083340946,0.38695329076978047,0.015233046766836584,0.547084652565998,0.3800520660724173,0.9083613086016492,0.3210071669148184,0.5597173079351663,0.28871528944112645,0.6782525289004979,0.45047494940821364,0.7439422594791698,0.23685998824224508,0.40683192690360226,0.03539439746213388,0.5056937829823316,0.027925579365816758,0.516134067164879,0.027091042301138325,0.38122850833515043,0.012746751873985912,0.4672644936563189,0.025802960875962393,0.5556992525570417,0.03150323320408662,0.6533558802418521,0.12366143984645489,0.5790210683624908,0.0563120329936872,0.7037517714422447,0.09863022220519348,0.8366619192194715,0.9635042459573648,0.5702093692296304,0.23659508967439852,0.3974024270742693,0.04560005628924042,0.7456580958112424,0.3612069688579993,0.7955375157770512,0.25361515055283745,0.5999137742508495,0.20828987776126912,0.575091575091575,0.30646708988978144,0.10561108329464215,0.5992731924067893,0.14734056041121216,0.7984327599282958,0.30540153976520457,0.8297403493867147,0.24456695068889167,0.5558856420553995,0.335549661021312,0.5174707530789593,0.2163958880153439,0.6555744408590186,0.4225694771311759,0.7515441109854429,0.2418938899037298,0.8045350568521494,0.9526701348894533,0.6844741280038424,0.26343080563270693,0.7954351862189307,0.2274781350185217,0.6635302463332112,0.314809829615654
17,4.156721063901719,0.6110220593847798,0.38193290275353187,0.03006272352278926,0.29318440950685704,0.10342007670553285,0.6657792515776946,0.0313805229977833,0.6325651842783045,0.1560753466992641,0.9210780736441828,0.6521939656409478,0.871090002235892,0.448352149715227,0.8979790033473823,0.3206809121363411,0.553934756967173,0.024483189626090165,0.6389928615613913,0.37486626873394535,0.9432376464972164,0.5252782315811836,0.6606935595216474,0.28705635079800024,0.7410377894054785,0.5063134009164456,0.8032703521499513,0.2411046202232849,0.44416565489890913,0.03494410585667105,0.6298248903811184,0.03390730265451982,0.542528356033344,0.02909144936467329,0.3942014373610465,0.012983419286286242,0.5296285618695767,0.029427713686339063,0.6844903694849604,0.04614225564463086,0.7312263096700863,0.14177728930624442,0.5738134021883663,0.05463649848952888,0.7173907182324166,0.09392644316618422,0.8513575822225767,0.9668715004388526,0.5976361258619323,0.2213347614001713,0.41611772729954816,0.04057946188097018,0.8104572430897914,0.3935283686034961,0.8627219615404147,0.2927226010274262,0.6589013382807701,0.22567188630010482,0.6417124542124543,0.31799741252218916,0.10788970437920056,0.6824816469545395,0.16570118165218242,0.8220792539988969,0.2680952789886352,0.8771869856103647,0.2718614591133092,0.6109304890601535,0.3107740315253892,0.6134695955434885,0.2005662625445888,0.7024821965060644,0.4492052197015587,0.7857124069544177,0.22628393347387513,0.8133873869869764,0.9554221777963144,0.7478836914134058,0.29310571752629905,0.8302382990336545,0.2485195356316075,0.7094408513258318,0.31794768203026913
18,4.097537347700985,0.4369132127318525,0.3702757118981382,0.028867061540193275,0.28976550811888324,0.10261922697552146,0.5751328103384925,0.028431729126058115,0.6008705239256343,0.12561792788602413,0.9416751200876747,0.7619035527611554,0.8788712855204711,0.5143024917972009,0.835970115498715,0.40307542066794033,0.4357333042408604,0.017236465980451997,0.6055884049392662,0.45061010610687663,0.8897229288172153,0.3986449316944696,0.5659834537307991,0.25656504714398687,0.6984103676288294,0.5307538915155847,0.7387879534492183,0.17638334359404315,0.4182615262837508,0.03329936172021948,0.4685398771830531,0.019780697717706304,0.5133054975736935,0.026262741365859685,0.39486253202440713,0.012995485355730096,0.4692881362366915,0.025310144749462665,0.6218309326393512,0.035015845308947066,0.695109603349363,0.09744282935264843,0.5564580170893619,0.0557679821666469,0.6633491969742671,0.08141117435189332,0.8779130037996468,0.9725095042594208,0.6555161047962967,0.3178314779322598,0.3374279078240512,0.034621068828267314,0.7608204100607832,0.4163177943088186,0.879601367080196,0.337624642250558,0.619965614855893,0.23189636838733135,0.4590201465201465,0.3197811675742897,0.10767895947188871,0.6398031428529135,0.12381205722492307,0.830078125,0.33198518270524524,0.8066301505336378,0.3244265137366903,0.5867706321533159,0.36860637383201467,0.5219253496012459,0.17244529077287216,0.6615792255480137,0.47052732678920917,0.75769249877985,0.18088062976566263,0.8364415519975578,0.9604869223841204,0.6977164673331382,0.26867251932165354,0.8408124826847613,0.2893789590556263,0.6817482540053384,0.32717279409635514
19,3.9681900346855126,0.6062895962140294,0.36578084604081806,0.03248880234343086,0.3130268403464118,0.10609916496089371,0.6443947376510906,0.03144138993622093,0.5889477234628028,0.13388543958234822,0.9203084455370475,0.686531713042182,0.848708026265126,0.5532152841405161,0.9071132003592346,0.46000298837542164,0.45917835899479187,0.019898373028590273,0.616324439497744,0.45022558556579506,0.9345431762077248,0.44441356274652105,0.623492447914586,0.32234427841502794,0.7425045345855664,0.5720872217701367,0.785312037266245,0.24236953884904988,0.4536094996119232,0.04159300862341068,0.4845518988173411,0.020351757955359928,0.5623859528779398,0.034273420442460865,0.40960855852514255,0.013955473888928505,0.4698843022662614,0.02491483660894255,0.5562543499969739,0.04206721171499402,0.6866128889298271,0.1209861753033576,0.5988528643929041,0.06817337330548903,0.7666122736303235,0.1310225732873468,0.873033904764831,0.9719245305885369,0.5894347911809922,0.27661268725308613,0.3693057713163903,0.03899660016893704,0.7987496511477377,0.45810559857313066,0.8387962773397082,0.3244612348730108,0.6373084369973143,0.2452756231608565,0.5556318681318682,0.33032203066863236,0.1085288280751696,0.6370751109977213,0.14215854990933655,0.8049169625620518,0.3462776826023948,0.8963023681835076,0.3748423220646929,0.590900974561386,0.36769550830469006,0.5767598688410176,0.2247188564270167,0.6999628630243684,0.4976336184132732,0.7775276104637739,0.24321478110887956,0.8376944086309035,0.9615847893371788,0.7401086943150231,0.30911241684293495,0.7980929461335847,0.27312037645444515,0.6990603489438155,0.3498988845036375
20,3.8986789552721937,0.4534005037783375,0.3294726792399688,0.025416131953908076,0.26902783945382364,0.09985858101434872,0.5716034002959961,0.026713850571602096,0.5922033115583702,0.148216519411953,0.886532026205805,0.6170890045810079,0.8239871702854359,0.5155952904209231,0.8336110226381913,0.2315116630553557,0.5148782701362603,0.024828011391935186,0.5376032194453946,0.35897149519938065,0.9035123971508322,0.24608642022571267,0.6615729139748312,0.343359151177522,0.6409159753970542,0.48377216459199623,0.7660409741196444,0.2809677886133827,0.44579246360817026,0.03634653727993462,0.519738755638349,0.02160114627492627,0.5456104753202697,0.030255955822492978,0.39109603463094467,0.012729430015129217,0.4240174827912671,0.02076700212917367,0.4742060309871089,0.026336403355323185,0.6981320593055529,0.12919476822373385,0.5829224052865065,0.06456378391208195,0.70804156844044,0.1053623080425359,0.8378711168189069,0.9640802418433044,0.6579690133409142,0.30389967916733124,0.39613785886978226,0.03849869878130829,0.767257353157799,0.4424053607747741,0.7779206415185124,0.29073264680317057,0.6132472022080049,0.21811703831978696,0.4157509157509158,0.3043676224288193,0.10473174931351283,0.6419442952090954,0.154174081864397,0.8009762393132929,0.3581194856301435,0.8191389449370785,0.20763095515407984,0.52746336382449,0.2943824435711228,0.601037260300789,0.20768863367547888,0.6021291866028708,0.39666966311484253,0.768073273304868,0.2713014840613522,0.8051481879117368,0.9532345931936179,0.7081491853809837,0.2930771561891671,0.7636268343815513,0.23713948296394194,0.6674594903268706,0.31619542988469607
21,3.788499935284233,0.6765895733150141,0.5629016342370062,0.04961211301555686,0.3991654986069675,0.13231365896076475,0.7408432596465905,0.03724763853226502,0.7978592718575905,0.32181042733204684,0.9574719136050382,0.7390797271914531,0.9403595994377489,0.47423237707727833,0.9427084583823664,0.4521789128669363,0.7409802266050665,0.05334095851704978,0.8142401756837517,0.6362785614123029,0.9627357270880893,0.4655373713025129,0.8477375225935304,0.5520283963493864,0.8196940371794023,0.6084090492479268,0.8830446023203078,0.3813796314699568,0.6649731694593244,0.05674123364613318,0.7691065693310767,0.0682559669801777,0.6777847259251717,0.03975956379257965,0.5262126188340605,0.018643399454291172,0.6358049605759261,0.042296332084538736,0.7188952520728681,0.03726369802274551,0.8110016110727798,0.21768459851197508,0.6601962099473333,0.06872835066497146,0.8344416607829227,0.1478957786522502,0.8326657857100015,0.9605870224834896,0.7359105548921598,0.18832431538879185,0.6177432105229389,0.08324649911509713,0.8509406083836764,0.3702628239420761,0.9160223150061039,0.4763587353000623,0.765238562213326,0.28442582004868944,0.7113095238095238,0.3876370711355819,0.12970394934718388,0.7992610891055486,0.31616782985064334,0.8612807242829563,0.2841452888179533,0.9250169250783199,0.35700605271327934,0.752948611944168,0.4876308061798534,0.7922261066805116,0.38589727816790903,0.7638155112940915,0.5195820344777844,0.8608499843645429,0.34057367203471356,0.7886484777190796,0.9451398835881757,0.8039343790565813,0.3204780077325532,0.855173276435976,0.3412568721012753,0.7809811051906689,0.4025074250010295
22,3.688079708123533,0.5996488817647507,0.44507143227236134,0.04281317031284351,0.3544018706055261,0.12572234313964475,0.6956593819213985,0.035106311019697654,0.6404681888270279,0.2061773067884578,0.9509634502220383,0.716465330961986,0.918270075203273,0.4991680637312637,0.9303389088342388,0.3754838736712743,0.6472624615394346,0.03954652907739736,0.8396637047558101,0.6716016822398663,0.9550390843412901,0.3823553300037766,0.7476905318663433,0.4462143332307351,0.733539493277366,0.601414985620262,0.7584255233592615,0.23269493208764325,0.5511277834216524,0.04946367423328872,0.6261556434133886,0.03656125074414732,0.641910793379439,0.04394415048674927,0.4544655829884552,0.015909941896611282,0.6148791176980042,0.0451081542488632,0.661383185559523,0.047626371451656005,0.7584785529194829,0.17320279560673438,0.6289756805234058,0.07892072665007391,0.7584602691412655,0.1076756147481012,0.856724793408825,0.9685322029617843,0.6946185357942223,0.3332966910922912,0.47115288733303456,0.053942818226044506,0.8324290068073714,0.43929926021530713,0.8493998459116614,0.4403658513226946,0.7043316957527814,0.26698569243589615,0.6607142857142857,0.37309303888237005,0.12725217416543533,0.6832409331906479,0.2122605151890721,0.8389673753792057,0.2828162725825394,0.913065662666596,0.3243973755567186,0.781051814512727,0.5186633080497451,0.6877830004000306,0.290186531268229,0.6787398464448647,0.494413428914436,0.7401322730447641,0.2233095261557442,0.8066782832476055,0.9538529406269678,0.754676150096783,0.30932339539905845,0.8061055082100074,0.32948414498770445,0.733048535097782,0.3696326920814228
23,3.657693462329606,0.5946874284405771,0.4875605482087296,0.03825935160988648,0.359905266484159,0.12136819489626305,0.7632468156992142,0.08340011380285589,0.727687059573455,0.2087133653893916,0.9670683946983478,0.8309657783992109,0.9361475483224205,0.5841030798310445,0.9280884040069195,0.5438823072369788,0.6043382569181585,0.03332927923723962,0.6828248752922794,0.5260969305949383,0.9524797616706041,0.32749135835970705,0.7624928494315977,0.4126959628882578,0.8298628005961297,0.7081977244165238,0.8369508483858401,0.30032562074997915,0.563581986002447,0.0566488761071743,0.5901121270956249,0.03128412241829986,0.6107466217936179,0.042309057118326894,0.45529021849656315,0.016727673376468383,0.5646092116846169,0.034913163015418365,0.5909279867457483,0.038873350245256524,0.7419857384431163,0.17354523201922473,0.6415127262457702,0.09944165763284352,0.802443431803897,0.20743709763449336,0.860841540241949,0.9692517947421724,0.6521798937154841,0.24001449230268648,0.3797851773616332,0.04047872201369685,0.8464785999994867,0.5483921123754744,0.8944503497088383,0.5161094724602358,0.7049481125417275,0.286453921884224,0.5670787545787546,0.36963223716540805,0.1253840074604897,0.7337082164000602,0.1781271911703796,0.8663989244346388,0.3278909524572064,0.9057853900069027,0.43609818089743085,0.6321873710466449,0.39518266939059166,0.689731287928437,0.23606417001069124,0.7568982975408924,0.5647163214038133,0.817768893331112,0.2880094701683159,0.8219238617274703,0.9579269793311296,0.7589774968215925,0.3097767731080136,0.8315790670652788,0.37133913930633305,0.7440537312244033,0.3809559867913086
24,3.528600248605475,0.6514006564384398,0.38384516996011725,0.03427490719074537,0.4132843701232506,0.1634255271946986,0.6691225661197131,0.04473262145775915,0.5981680501969086,0.19793237063434968,0.941453629895841,0.7464207652688466,0.8886603459908304,0.6081880552304686,0.8820131205573138,0.3975935698440245,0.5292524815563209,0.024233357563195945,0.6834177622945796,0.5530542155529091,0.9318692635966433,0.589224485635845,0.6711603996662412,0.3718416107470469,0.740374562522533,0.6416629855673945,0.6996983752319037,0.17555418819001525,0.484859143846923,0.04956541040882795,0.5196165956861454,0.024035554888388624,0.5658683256475734,0.03962712650419362,0.4253362047583829,0.015573225709224408,0.5269192986951973,0.03381582526898134,0.5220476759668341,0.035325507855340804,0.6866392187600474,0.13948558460808458,0.6329022329135799,0.09771315295667388,0.7867572159415479,0.1635365324221822,0.8681363174071992,0.9711127078980804,0.5904631819721129,0.2878810319058993,0.31407690965838686,0.03696211977730688,0.8097067905139567,0.5344373798723359,0.8348362460992512,0.3903636156362623,0.6518698316881235,0.2728730902144104,0.6348443223443223,0.4148015765562476,0.15895110841650764,0.646894893712988,0.1704404502747581,0.8288284697324875,0.39252759522185027,0.8661188970158764,0.31644918238708525,0.6368918962451852,0.4179926099966529,0.6246100765164991,0.226751843565257,0.6846585345499054,0.5194953111409173,0.6954622104152604,0.18304767860699733,0.8267239893811383,0.9596068934249825,0.7110026652089939,0.2846713319903879,0.803633822501747,0.3049787474875243,0.7036024574396663,0.35771934113753817
25,3.405455787303238,0.5793450881612091,0.4933600403079024,0.046916877872646146,0.4037077278615948,0.14701210123663075,0.7193665214011655,0.05008610329194052,0.6880166129750575,0.23564797340109542,0.9735515962964681,0.8033207520750513,0.9599701946302388,0.7006321666117948,0.9481427290846519,0.5730465699327424,0.6379463876319044,0.03440402882029099,0.7753547659484628,0.6212977903989825,0.9702859554944605,0.7596194263569984,0.7261557387537374,0.4411830841271317,0.7660129740006725,0.6547107951985592,0.7735540238006967,0.24859149555029647,0.5793664838229888,0.05924288503861973,0.6363402589243491,0.0356275079023476,0.6332040241049729,0.04552393216066583,0.47413282139241636,0.017048982068920596,0.6057220074838117,0.04044425417476737,0.5903256067300127,0.028957113150159686,0.795503421139986,0.21560242734337476,0.63954524747299,0.09603744544389635,0.7904714521866464,0.2392839077305473,0.8663428683776871,0.9707702342761995,0.6671260309290168,0.2543117827204137,0.4364214194960073,0.04743875214864532,0.8481001900030035,0.5348375180746341,0.8875434881362779,0.4728144384159526,0.7142803921624881,0.3101633461304928,0.6112637362637363,0.4030510174404028,0.13760673223920342,0.7148096516426096,0.21168362495397128,0.8885803054329842,0.4112808414607572,0.9300886409493972,0.44352167842474294,0.7131066464380877,0.4739120762526232,0.6460045343898682,0.25464326902978507,0.6929772170913542,0.4907155411793589,0.7551043191854363,0.23350225035311908,0.8234605146147786,0.957938654050643,0.7508599216857514,0.30438229621301954,0.8314271064633909,0.3374987791798193,0.740860897757642,0.3869714312124584
26,3.374440207070826,0.6740706816273567,0.6028208556860182,0.0676846954150533,0.5204163965834766,0.21935200505048294,0.8188227638896411,0.12535117942226504,0.8146573405868592,0.33459922013957993,0.9740281448824163,0.815466853017071,0.9632867881289302,0.6508384829817595,0.9351829760827616,0.5253515950414627,0.730068019466659,0.06047559409587144,0.7489791803204153,0.6072381051879086,0.9745866695544364,0.6710925683583129,0.8083092556289596,0.5531175769713151,0.8556601364279566,0.7332285794248119,0.8622834291422625,0.37847231797746883,0.7453264198288176,0.09635957910067554,0.7454332024590764,0.05891248124059083,0.7255227410966208,0.05942405095679039,0.5519926880569849,0.02120435083214925,0.7019410691362771,0.05639732952797847,0.7058341024632331,0.054799060348319883,0.8459901319619807,0.2510605170775733,0.6836694554972238,0.11982534565256969,0.8338334515699065,0.19096920460851088,0.8827738392315918,0.974227066498067,0.764606014972584,0.3978602265969957,0.577035979931816,0.07975259560532376,0.8987664046133703,0.5548934613379953,0.9376146729965587,0.581066241403273,0.7855348937109938,0.34218593643963613,0.700091575091575,0.5058360662314088,0.19233017108799597,0.8141464081494402,0.2827060680308772,0.8704699996552675,0.3314393198507613,0.9047972641108692,0.4026508412898987,0.6691700811341913,0.4313004560411565,0.7259061332357373,0.35260316564862454,0.7698002670524091,0.55398182543465,0.8414053207314471,0.3537649642740271,0.8330283464733306,0.9584180873962679,0.8003179209765267,0.3598141269553077,0.8812908587944872,0.4118428666954708,0.7832880605950105,0.42098653570045796
27,3.2750292319704055,0.674833982138768,0.5077541895507675,0.04761725555044942,0.3983946816278059,0.14073181439588806,0.7604345229294542,0.05995017979958906,0.7090566253983538,0.2796837496422641,0.9548388221054833,0.6903847875206026,0.9339023605050474,0.6199941298407106,0.9420281776501901,0.46874241082987045,0.6728850246495465,0.038322083381079446,0.7832384572648361,0.6117475176299179,0.9844858259868328,0.7413850180408805,0.7165701610730749,0.3095544841768716,0.7879205670634954,0.6137510591953713,0.7710442934383636,0.21699236523484117,0.5703490548537731,0.060796119961049576,0.5583317193619761,0.02706301714682112,0.6477509773553662,0.048803516740484706,0.47411652350754463,0.01908603482058146,0.5925702882714863,0.047550164030681415,0.6064705259335472,0.0405949051678017,0.763395192503211,0.20938073946163055,0.6503129239350247,0.12460771981168611,0.7680200541585291,0.19313463005652803,0.870411484284231,0.9712588181045894,0.6490951307333606,0.2856221253911356,0.4338975652730027,0.044654618355419534,0.8349982280811066,0.577370122797299,0.8787528587109199,0.47351737912219793,0.7118898606002345,0.2948998802298608,0.6483516483516484,0.40407758421839113,0.1395494327108805,0.738681889543009,0.2655803525703373,0.8028625723938224,0.2966958151147481,0.9196249601762864,0.36044869444608985,0.7021585161754487,0.43247886113621387,0.6239680060600387,0.1778948407543943,0.7053843051073774,0.455441736877782,0.7534469607301612,0.21575748964858985,0.824471288307485,0.9569541294855942,0.7415343645083804,0.3299115068850934,0.8330862681370665,0.3503764207222914,0.7317542468506787,0.3619172073047286
28,3.224049389193999,0.6104877490267918,0.44073864829030185,0.04078235590151105,0.4220559507275636,0.1755364644815678,0.7118694528170137,0.08793391552470807,0.6501709264446769,0.22291229574791271,0.9197380858143689,0.599974978197529,0.8849407292921909,0.6078505763849702,0.9308311018289633,0.5190078419550599,0.6209763054456683,0.039950600820687694,0.7853684259672448,0.6516784425224945,0.9746650150392391,0.8373148103475315,0.7303914331748451,0.44891483989087744,0.7429872645880519,0.641181956129484,0.7676987610760714,0.263408874558629,0.6331523759074937,0.08988079358291017,0.6508156999833697,0.03987019193129896,0.6216971551523174,0.05280570808981299,0.46198921117487896,0.017418251956497884,0.6048473933604308,0.04697797599905962,0.5738797812140652,0.059691682493786626,0.8014710815042937,0.25016085122667575,0.6463708220073864,0.13135665694205914,0.7756560023456338,0.16570627189677736,0.8617106548469967,0.9696135445008267,0.7412379630788055,0.4085794415997218,0.4180163510710856,0.047934262164086756,0.8556543160435857,0.5654983305822884,0.8390688500979653,0.4575175661390616,0.7062222132701671,0.312572573391401,0.6387362637362637,0.4023550059672454,0.14276115583518056,0.6779398613954324,0.21529380135123793,0.8085932113554881,0.37408351862123246,0.9210129825306643,0.424757905872042,0.7223130531092236,0.4926947861849678,0.6395840958030828,0.24047667227391406,0.6641681039278959,0.47961455404513087,0.7529054186357114,0.24861677447930514,0.8170760096716598,0.9568588149887185,0.74868090072618,0.3203005237249814,0.7844630105152601,0.34623047704819376,0.7217356048761677,0.3856080894931731
29,3.169571784341365,0.6626975040073276,0.4295319155154868,0.03871592841782519,0.42206697225922785,0.17847448662400678,0.7701127698476248,0.11802302290728864,0.5978551684909551,0.18874961707574223,0.9214029658876847,0.7056575629513703,0.899156378872631,0.6651603206276726,0.8894092374458886,0.4025047056468804,0.5989846094493616,0.03797783586299586,0.7531850493631445,0.6247030267323088,0.9207132643657331,0.47624803447424824,0.7053178465666002,0.4266562552817907,0.7712581309139752,0.6713015026756386,0.7247665597589067,0.21489569850639645,0.5492636585298887,0.09104390481482118,0.5704228171522154,0.03634764834338394,0.5985444170835555,0.05012124635100988,0.45025923003546575,0.018496884520905577,0.5722247136623457,0.03926071321710756,0.5565544997881741,0.047552838799746866,0.760561477112165,0.24648807845736342,0.6685442943283693,0.1799156436265385,0.8094800174574475,0.22930230235742854,0.8679847540182786,0.9704920668481016,0.6482921507581598,0.30300964507975964,0.38295210551797754,0.05285133102510728,0.8377240432218632,0.5925141466614434,0.7773420634740096,0.34000436230164977,0.6834781892917458,0.2943136596366123,0.717948717948718,0.39619700935704183,0.13783845786103957,0.6227836373816118,0.1598986411580548,0.7976678847214562,0.3630775541070068,0.8681976119046354,0.32464543633932014,0.6840822662962525,0.4605879781030946,0.6170339643036488,0.2481406603105401,0.6910122955379993,0.48081520790997456,0.709312595164406,0.20703163159248072,0.8233147912494576,0.9575867667910565,0.7310326494787519,0.3023887324272959,0.7387218356013712,0.2854967128775117,0.6981233219087848,0.3570461617706705
