epoch,train_loss,train_accuracy,train_anterior myocardial infarction_rocauc,train_anterior myocardial infarction_prauc,train_atrial fibrillation_rocauc,train_atrial fibrillation_prauc,train_atrial flutter_rocauc,train_atrial flutter_prauc,train_bundle branch block_rocauc,train_bundle branch block_prauc,train_complete right bundle branch block_rocauc,train_complete right bundle branch block_prauc,train_early repolarization_rocauc,train_early repolarization_prauc,train_left anterior fascicular block_rocauc,train_left anterior fascicular block_prauc,train_left atrial enlargement_rocauc,train_left atrial enlargement_prauc,train_left axis deviation_rocauc,train_left axis deviation_prauc,train_left bundle branch block_rocauc,train_left bundle branch block_prauc,train_low qrs voltages_rocauc,train_low qrs voltages_prauc,train_myocardial ischemia_rocauc,train_myocardial ischemia_prauc,train_nonspecific st t abnormality_rocauc,train_nonspecific st t abnormality_prauc,train_normal ecg_rocauc,train_normal ecg_prauc,train_pacing rhythm_rocauc,train_pacing rhythm_prauc,train_premature ventricular contractions_rocauc,train_premature ventricular contractions_prauc,train_prolonged pr interval_rocauc,train_prolonged pr interval_prauc,train_prolonged qt interval_rocauc,train_prolonged qt interval_prauc,train_qwave abnormal_rocauc,train_qwave abnormal_prauc,train_right axis deviation_rocauc,train_right axis deviation_prauc,train_sinus arrhythmia_rocauc,train_sinus arrhythmia_prauc,train_sinus tachycardia_rocauc,train_sinus tachycardia_prauc,train_st depression_rocauc,train_st depression_prauc,train_st interval abnormal_rocauc,train_st interval abnormal_prauc,train_t wave inversion_rocauc,train_t wave inversion_prauc,train_ventricular ectopics_rocauc,train_ventricular ectopics_prauc,train_mean_rocaucs,train_mean_praucs,valid_accuracy,valid_atrial fibrillation_rocauc,valid_atrial fibrillation_prauc,valid_atrial flutter_rocauc,valid_atrial flutter_prauc,valid_complete right bundle branch block_rocauc,valid_complete right bundle branch block_prauc,valid_left anterior fascicular block_rocauc,valid_left anterior fascicular block_prauc,valid_left axis deviation_rocauc,valid_left axis deviation_prauc,valid_low qrs voltages_rocauc,valid_low qrs voltages_prauc,valid_myocardial ischemia_rocauc,valid_myocardial ischemia_prauc,valid_normal ecg_rocauc,valid_normal ecg_prauc,valid_pacing rhythm_rocauc,valid_pacing rhythm_prauc,valid_qwave abnormal_rocauc,valid_qwave abnormal_prauc,valid_right axis deviation_rocauc,valid_right axis deviation_prauc,valid_sinus arrhythmia_rocauc,valid_sinus arrhythmia_prauc,valid_sinus tachycardia_rocauc,valid_sinus tachycardia_prauc,valid_st depression_rocauc,valid_st depression_prauc,valid_t wave inversion_rocauc,valid_t wave inversion_prauc,valid_ventricular ectopics_rocauc,valid_ventricular ectopics_prauc,valid_mean_rocaucs,valid_mean_praucs
0,4.560065643891872,0.3933145341322994,0.6976638555831104,0.02038885365086015,0.8618105671497993,0.12602029853931299,0.9395791389296978,0.737013393524558,0.9181544235360704,0.41538220979191953,0.9696258785176939,0.49130702186330866,0.7360460947901545,0.011586156277369227,0.878630741529521,0.2298261642556074,0.6628675163073899,0.020674931521590494,0.6530379155843158,0.2834777062036983,0.8983481203954313,0.12392237906527585,0.46532846845630105,0.023107848069240565,0.7935170027197312,0.3001125894747783,0.5374336044046986,0.015194194260353002,0.9365433912240296,0.7531720638715771,0.973400472520991,0.7582756629593458,0.8432438263413085,0.2491403527947651,0.5968011407131428,0.02488771236891503,0.564039916929849,0.01686251562431492,0.5388651935884825,0.04750530930279824,0.4323912371420237,0.014964307996166968,0.8493339189163511,0.5298216019085296,0.9812543686532207,0.8822924519506397,0.4799013397407893,0.055508414012091806,0.5547340118822385,0.01955026187804902,0.6541227291449672,0.16454191895982384,0.9296634532874372,0.4740395939765659,0.7440899356918748,0.26109907361928675,0.39721561371045905,0.8487910420617508,0.12986082250410097,0.9389393011449816,0.7413688345047851,0.9728774436519751,0.5039729394434731,0.8843661758991408,0.25912513292914113,0.639779798984999,0.27012476437184996,0.4075395359624784,0.017915510468832163,0.781957506751387,0.2908293696702478,0.9324665795690774,0.7461404060989539,0.9673248224492461,0.7554132968269789,0.5392988000883986,0.041488411484455576,0.45044020866773676,0.01838007812640316,0.8411673894674531,0.5123526489226117,0.9805080834478547,0.883672629431698,0.4848752928372655,0.05701292142087119,0.6628113129513029,0.1976416654584573,0.9076085813808427,0.47347370546074735,0.7650469922072431,0.36867332107022543
1,4.108357744314405,0.46272470919985903,0.7609203770694454,0.025905075005737327,0.8960528883053531,0.11634034513195732,0.9826358558394442,0.8873604232694482,0.9152503378525105,0.5621209566717354,0.9827053697520061,0.6287479241526257,0.8031871529651001,0.025587705199498365,0.9167586661832269,0.440453598341999,0.8274867448680706,0.03345662286740338,0.8678192626552962,0.594250117589515,0.9504052805467493,0.4286814161083641,0.49543090241813026,0.028231558037416685,0.900419901982699,0.45349727121070726,0.6493369588776575,0.015049043991294413,0.9370197461826466,0.7169963635624321,0.9707600940763889,0.8359164819298746,0.9648274478286756,0.43798753840213667,0.7735119968722382,0.02910851304568924,0.6410682670484221,0.023691722276017547,0.6158460025921182,0.06506317622914698,0.6090869642364606,0.024467699164560368,0.8947015733066735,0.6230691413970526,0.9887879139233874,0.9286681840766472,0.5546236757317606,0.06555954696006322,0.5902470216085856,0.038472509104768404,0.6788824531812396,0.23931550359817766,0.9796594072929273,0.5447785226455828,0.813362779353739,0.3389529599988404,0.4597761917349546,0.8940438254758739,0.12635556677985896,0.9807875875004186,0.878089261975523,0.9830076118741787,0.6568228909325735,0.915010578127024,0.4615693469799648,0.8557267352054434,0.5647761262645786,0.453720804377518,0.024187517944547366,0.8954682740261701,0.4457603909680845,0.9345379670528365,0.7153477831598515,0.9655348747852817,0.8362308691384227,0.6256819819887693,0.06283076889960479,0.6335850722311397,0.03847575948413924,0.8905402758016698,0.6211150306458527,0.9884122355332018,0.9147552218607835,0.5569500711211941,0.06257141920853333,0.6922957756791223,0.2742461843225041,0.9828124744476607,0.5932821202571621,0.8280072590767189,0.45477601617637403
2,3.960042214564495,0.5814240394783222,0.747666004343023,0.022796309775071952,0.9371899294124567,0.34284170573060135,0.9742156830189113,0.8361070212440889,0.916742161148319,0.5323797795075004,0.9875790066253627,0.6673142067193555,0.8544319003777833,0.05946758449071944,0.9541800493729249,0.5503201780677456,0.8747838210404728,0.05389133663985901,0.9147483263443392,0.6250594265333014,0.9566154925635707,0.5265779636794413,0.5365707339873107,0.03148004851297804,0.9033975526715817,0.47700123449307097,0.6645835268552062,0.021082600451643983,0.9599962401818178,0.8244305916282824,0.9790085776816821,0.8618812913861925,0.9273601297803611,0.3926390144948128,0.7388404282931029,0.06058625555117507,0.6496690927959948,0.027033252363497545,0.6628596079645502,0.11851380635063441,0.7575091848296337,0.07379156693114863,0.9223390998530245,0.6812106671241533,0.9860019017543898,0.9294408651880111,0.6180118000946556,0.09585737674309137,0.6241780086673591,0.03894746083874606,0.7060844716421624,0.2965756542793464,0.9765199823221165,0.6063618002356286,0.8358108736008506,0.3751380384215422,0.5698299409639616,0.9321472035466656,0.343773461145971,0.9711955027961324,0.8286931715117077,0.985743364939893,0.6818266244855482,0.9544749794913865,0.5607946618820108,0.907346624611026,0.6004607542075903,0.4932803896472044,0.023950837148959306,0.899258592455605,0.4432208324117698,0.9552905447212584,0.810789119051075,0.966788654331033,0.8607825941108302,0.6738132728606012,0.1293701889081075,0.763581059390048,0.07811711109581651,0.9167510743068986,0.6634063967390171,0.986242446574956,0.9206539670244247,0.6239763449507953,0.09782045807273973,0.7214504054817709,0.33212000998107355,0.9766035966791499,0.6309122048026801,0.8579965035490265,0.5004182745362076
3,3.8620587694506265,0.49292092586065095,0.6942424610126474,0.022965071133666644,0.9248823983453189,0.4272518726332009,0.9710557454837228,0.8309256050988417,0.704909861461564,0.19203500600821807,0.9622585325656215,0.5486083678284673,0.8672324812999761,0.05653000589833618,0.9540921198398393,0.4746725934354596,0.8447755065812236,0.030465150594664196,0.9030555656474054,0.6069134960726709,0.9111817221506053,0.2710953994878839,0.5006060269744739,0.038999437362774225,0.860508675620821,0.34588175449252556,0.5687075131524502,0.011469105736635126,0.9648505559804204,0.8509329706135411,0.9593326023575466,0.7837126668402493,0.8098252739551128,0.25360563040515355,0.6467326387862181,0.05046902575513705,0.5289450653672032,0.02603823402510358,0.5916164453609356,0.09478560057380869,0.6670901129862745,0.11107215048535869,0.9004982757753132,0.6725126699389412,0.9743420730346884,0.9068448323639019,0.5465088352810543,0.07202000461613023,0.6058408851756741,0.043384856805015554,0.5559846921019405,0.19153060912193448,0.939278514702077,0.5406125536975585,0.7830136377307741,0.3252051796548145,0.4889417569829941,0.9146349135180021,0.4020298004717492,0.9676661132349915,0.8296537856880996,0.9557259358821938,0.5342453143391881,0.9569859893786969,0.49014212076429003,0.8966532339076552,0.5729499513205385,0.451165677372802,0.020974390465685805,0.8404653424615685,0.30059056218584684,0.958907674858691,0.8378922417269223,0.9529134207777075,0.7827753155965484,0.5965074360365247,0.09141529084858396,0.677083467094703,0.11777794721615747,0.8941553633929127,0.6342778252848421,0.9747036413730157,0.9052771472036528,0.5422263834622717,0.06421509772542369,0.5585697618898868,0.19795772515372398,0.9281164509173143,0.5199601906522245,0.8166550503474336,0.45638341916521735
4,3.7771830407226568,0.4993244037128422,0.6342082578107423,0.017695015154113758,0.9254480429360921,0.35894670410919977,0.9806564139333116,0.8914511138828394,0.7730908227064256,0.313232173582763,0.9575768528078085,0.570624516668886,0.9129206400608638,0.11485079282078325,0.9008187196647264,0.3877296729988775,0.7892550256588922,0.030982901200688518,0.8393210437309352,0.5244859811409722,0.9495341667495383,0.545374207567158,0.5484185052341105,0.04041702802064255,0.8365954632062051,0.3809744092640656,0.558818826933741,0.012332088806398578,0.9691841019481703,0.8679889473110124,0.9841957007901595,0.8582305178046791,0.9001948499655265,0.32778856915756427,0.645714210617963,0.051613779305708256,0.5532957227599586,0.02803132696540208,0.5633934253963071,0.11321253321547231,0.6573698532093574,0.12993083766215763,0.9048430406860333,0.732655101523195,0.9813483133650789,0.9379921078667464,0.5615359577508373,0.09258148539610608,0.6402181715351152,0.08277498036352074,0.5700159177087372,0.2212251130678546,0.9552244459877517,0.581363597444586,0.7881998651213227,0.3544032885500536,0.5016300995682439,0.9169244961031059,0.3515563075011871,0.9784252024597674,0.8807294243509629,0.9523559947012216,0.5714316871382191,0.8975588273390613,0.37776727955183753,0.8225768496093411,0.4885485560797344,0.5079200776545575,0.022243839722162206,0.8201592879541362,0.3468348381059156,0.9628256689750622,0.8348865670420649,0.9778158871510513,0.8589296960873073,0.5552736592030055,0.10207622662865945,0.6568105939004816,0.140755594715674,0.8938462377844499,0.6851217733327702,0.9814476139558274,0.9356298812682888,0.5460935358736904,0.07916453817536631,0.5707868667271443,0.22527827033985165,0.9540883353619457,0.5855732234859433,0.8121818209221155,0.4679079814703715
5,3.723841372758742,0.5342791681353543,0.7402934194859662,0.024634843244835135,0.9559229685845061,0.583972458376803,0.9804835759692465,0.8560255983706708,0.7389983838971099,0.3486672548178778,0.9760229134205323,0.604234630693543,0.9001939471244848,0.23458717425156878,0.923322840315342,0.5300488457047177,0.8010971825636672,0.025153023619049735,0.8534439980353499,0.550383383684146,0.9450035668136394,0.5337959995899251,0.5354737700794251,0.045221096038564106,0.8962314812549708,0.4153674203588885,0.6695686503010497,0.013140743545720928,0.9667306697607061,0.845052067896946,0.9798357097109296,0.8683975275846941,0.8864866461583704,0.33144519868494715,0.727480541838743,0.10894073204189993,0.5647929681072892,0.03273887608858026,0.6157796805372522,0.11124176221325043,0.6704899280306291,0.13238056520311256,0.9150518700211182,0.7052629618384066,0.9890989352676931,0.9518732373117936,0.5307139557849133,0.07123912006101132,0.6114938912318966,0.06681486312063815,0.6379834251080365,0.26203572002274156,0.9809271374188688,0.7066553806590994,0.8074200791085283,0.38305040327013207,0.5287690545422504,0.9451142131979694,0.5579726032798441,0.9779319784092535,0.8434594443135861,0.9707244107049121,0.620662507540226,0.9243791287077415,0.5328729352745123,0.8413138834757945,0.5059379629802735,0.48759223626227305,0.02510470811504934,0.8718240860360852,0.3684586005538665,0.9609904411244353,0.8175556555804829,0.9749959818782711,0.8567314062636154,0.6238689615164392,0.10007014014964509,0.6705244783306581,0.15128495669985595,0.9058533718437597,0.6569201697327995,0.9901314958716927,0.9382988870811261,0.5251702007198145,0.05906218388395486,0.6381050812221528,0.2755039921680935,0.9775556038373092,0.6679790101733095,0.8303797220711602,0.49861719773689006
6,3.66435778035973,0.5591587357537304,0.7012098782285119,0.019622647074451757,0.9174365174361159,0.3797012212328837,0.9864078388918848,0.9248760327067422,0.8023343586369852,0.37151517161227154,0.9852663856292895,0.6580648085406067,0.9286193976821092,0.2521332570153985,0.9526089463015964,0.5026933249729727,0.8148601788121976,0.037198327757213365,0.8751483007032776,0.5568021952181695,0.978009831905633,0.6799781287634667,0.5697511443719262,0.04980916278263181,0.9287001233456673,0.4744440544276731,0.6900262345288058,0.020494164366585143,0.9704676381595152,0.8676067445204212,0.9876059177491139,0.913919217728369,0.9072055539132678,0.3993734098090117,0.7494809952327917,0.0834208721897095,0.6206282688740006,0.04059455212776328,0.6458025593928836,0.15889725090217355,0.6878831160389316,0.17834150369058493,0.9182997034681373,0.7728565925578401,0.9702345940434665,0.9123131666479922,0.6727429190330566,0.13297619588208232,0.697520172605665,0.13523759494298435,0.713291042835696,0.28194494511513,0.9669025199876574,0.5693441520736336,0.8322478514541609,0.39900610364072164,0.5362587012071548,0.9102012956858511,0.35562038960276815,0.9829117337616182,0.9138053281063866,0.9796938543439528,0.6507432276499049,0.9521268511722292,0.524361488783111,0.8639040925542746,0.5042089221313961,0.5235502048740261,0.024543308143921853,0.9100968023137808,0.4210856662911607,0.962530743921809,0.8393577479344835,0.978987106851902,0.8925649731146186,0.6357578930978715,0.16270147116246006,0.6895922953451044,0.1720822647880143,0.9052961824754191,0.7231748846029588,0.9700497789448579,0.9044673797533667,0.6619516615951553,0.10706437086119991,0.7158416202648445,0.28395321923708916,0.9621891570083692,0.5633894968589803,0.8502925796381916,0.5026952586888638
7,3.6219124538247724,0.5679414874867819,0.7177454073416806,0.019955793506644788,0.9442259626493142,0.5236507536936714,0.9688729912987631,0.8041880964465973,0.76061355297966,0.37848087128903385,0.9857970161881128,0.6859448262167139,0.9082748887614607,0.20019685358163117,0.9390182172460317,0.5737422301806139,0.8045160737155006,0.03152549339783272,0.8590498667992271,0.5721833090969379,0.9512436049048075,0.5675402504832793,0.561929152886294,0.05231893833749013,0.889877999446062,0.3898805416015428,0.6267410635117675,0.01897319947371204,0.9726815058287281,0.875047653512433,0.9827478413697116,0.8812240479844581,0.8562038325379968,0.3033732731742188,0.7496883737281148,0.10849301924608529,0.5967526624514632,0.04884734821383596,0.645809488282534,0.1660124685992796,0.6925416111605416,0.20401925745913757,0.9446719130027961,0.7927295396074914,0.9847037562532581,0.9449203984714192,0.5382380520059706,0.08708614952986625,0.6816031869238666,0.15935195140822372,0.6541233767472286,0.27964918445832343,0.9606545263118581,0.6657639361806048,0.8145509970897213,0.39750382250581073,0.5465679795576702,0.9274548031193454,0.47279898171569334,0.9633140190463431,0.78535492192146,0.9784613170848957,0.6662536582575987,0.9404788221579379,0.5759570420521205,0.846611625972465,0.5307279725428791,0.5073977992148643,0.029022400080849088,0.8608737192452508,0.3668691754298533,0.9620304518164978,0.8321293132667011,0.9740542345980371,0.840273409717958,0.6305148720730495,0.1504683036142354,0.6761476725521671,0.18293084325208248,0.9352451816971631,0.7363950544372723,0.9853120728525676,0.9337633610644481,0.5163748797141547,0.07790916005701361,0.6554788733071238,0.2908607903152835,0.9537916361985439,0.6191421679220502,0.8320963737906504,0.5056785347279686
8,3.5805578375798306,0.5791035131006932,0.7525137331037952,0.025713838611218225,0.9545558395626004,0.6012805440620276,0.9900687561401017,0.9370338915720768,0.8592451125636047,0.4258650241796367,0.9922342790058258,0.7442356646699342,0.9301516011773997,0.38232299150202376,0.9558332932724286,0.590733756251749,0.8108385648410079,0.03668905372874194,0.8655081436570162,0.5738261498555118,0.9690327992913786,0.6562843621987757,0.5585607609111888,0.0643012935979535,0.9303241622276286,0.5230408144877309,0.7664879931992896,0.0295854856486117,0.9660422540540926,0.8363735190210713,0.9881221984068199,0.9029557388060883,0.8963445883895679,0.3656634530116296,0.8015740001511313,0.07956020094400969,0.6660945044708231,0.0899119432762051,0.6351612870880085,0.13609079813177488,0.7653190916102209,0.22034030011248318,0.9413870680022928,0.7854663117989955,0.9887078947684411,0.9523050081101613,0.5911517720620358,0.11535205676370003,0.6868256864544433,0.1833481548654841,0.6610660100985144,0.2795447417398589,0.9790632677941505,0.7259351208387647,0.8423928716270696,0.4332215468379314,0.5571415983787118,0.9381452408022088,0.574680172344683,0.9864974765961134,0.9224682060732998,0.9872106070421154,0.722247315607586,0.9536936013125512,0.5738351227387043,0.8494754675694705,0.5140644836835261,0.4901995481604288,0.027535047911436985,0.9075203315827645,0.45346043477191633,0.9581357143334822,0.802655543714796,0.9809217696812625,0.8716203326431867,0.6308896874905825,0.1307278566761938,0.748782102728732,0.21700014240633309,0.9261527614796982,0.7081979944453782,0.9900192514032405,0.9416260816378369,0.58221149902671,0.10635184667798303,0.6630911090838829,0.28245250493071383,0.9742701083769622,0.6755142896393759,0.8479510172918878,0.5327773359939344
9,3.5487432264438485,0.5426800610974034,0.6682923931371136,0.016720448950795355,0.9463757695047054,0.6069788604908987,0.9838283498990211,0.9007185647606405,0.8021168693469619,0.34952911141282456,0.9868313077370523,0.6726738725422486,0.9346288595866656,0.31045191110437764,0.9527226630455187,0.5980210361585782,0.7679713383622628,0.026279844605055128,0.8573923285018215,0.6166843968381451,0.9312256138167615,0.5421032256751405,0.5811924154515355,0.0730421874544697,0.8409203158277104,0.4313388328730406,0.6317109163225496,0.015461760535913353,0.9763231644525889,0.8872787983461632,0.9884753766867829,0.893130125206236,0.9406418736405083,0.3732553493503856,0.7409473307246749,0.11452677801381499,0.6110923084009396,0.10082273812017359,0.6459543753083965,0.16945993308494756,0.6843825501572804,0.19172388315786326,0.9432709282231478,0.7976684777118956,0.983574208689387,0.9413027530378392,0.5415111902941605,0.1029535533943765,0.6864769858574892,0.17699669815949604,0.6323671965147288,0.2584815797340623,0.9733817578112147,0.6787891310179371,0.8166772456654223,0.41716899429758925,0.5305313243457573,0.9277261674097491,0.5716517972063719,0.9808695256915104,0.8856664686136985,0.9773675547905117,0.6499563304185578,0.9504634946677604,0.5625021810152728,0.8423729221325377,0.5567437930995444,0.5012103459235653,0.02752391624520196,0.8150023707799385,0.369648138443044,0.9651533285881817,0.8400914203521286,0.9797160192468031,0.8483681602886413,0.6365552391284695,0.1521269999448232,0.6740369181380417,0.17742793293372316,0.9263718491308722,0.7226988435456296,0.9837787543374733,0.9263047033719323,0.5236434457468325,0.08750668130917268,0.6329904446687776,0.25627400839687514,0.9708160161479104,0.6443117622507581,0.8305046497830584,0.5174251960897109
10,3.512422763142963,0.5506403477852191,0.7075365857974554,0.018520858337884697,0.9372759972534537,0.5094290450063069,0.9871883572932154,0.9346504297633796,0.7769108896942434,0.29663321282517985,0.9878924595397125,0.7043708633925356,0.9568693554351507,0.37084615263768067,0.9478106594106721,0.5117442780984889,0.8035278787984912,0.03432138124704863,0.8590788396266885,0.5411105060277637,0.9642290309997207,0.6065841566417897,0.6798680103647852,0.08943252073031835,0.899184764818711,0.4523381093344133,0.7463623517622453,0.03393487113586412,0.9734726297490766,0.8787954516682834,0.9901591703643433,0.9026390922661225,0.9248416091872033,0.4670371914427958,0.7413622191338859,0.0835422615821548,0.6414791276390388,0.1064603209749084,0.692468912851205,0.17850881846797373,0.7470234316368702,0.2759345830636264,0.9243941307722163,0.784681144990866,0.9771361750428453,0.9396283409382424,0.6141546413098878,0.12612291671657824,0.780867495517145,0.20700203266218303,0.7298312392862856,0.30714882401861954,0.9634358585378042,0.6651605759094475,0.8443985316085519,0.42409915153386374,0.5300026434047053,0.9246244935867668,0.4541638555685382,0.9831068436797411,0.9134940388365012,0.9793112126937864,0.6827646866645932,0.9453255472561634,0.5133436057978242,0.8461654340425404,0.4749789226239829,0.613839949146573,0.03891163237274804,0.8772452834452602,0.41109796736692406,0.960593581149231,0.8257715215047615,0.9846347652914644,0.866537286043648,0.6648964956955872,0.17683021115234562,0.7317255216693418,0.21703991147964327,0.8991227165059505,0.7064381914813768,0.9771558137834729,0.9309095096841561,0.5849657197844957,0.11143117304149651,0.7341471002547919,0.3039026644340459,0.9483540983810816,0.613447207451813,0.8534509110228905,0.515066399094025
11,3.4839100002079952,0.5775467042650687,0.7509611276692022,0.022970799481340315,0.9570518069515175,0.6487235180464267,0.9866456840496906,0.9269411185979017,0.6733655684806494,0.23497160067232936,0.9797799757932896,0.6396573013041923,0.947971262169422,0.370140914807047,0.9457757187878333,0.5749994087250219,0.8356995829486563,0.04196450309218818,0.8668684037146702,0.5613296329340258,0.9620237487904083,0.5918892703054741,0.5965642932293291,0.06597448191279973,0.9346843171718155,0.5501833490893382,0.7589297325598088,0.028616518374496584,0.9783699437548974,0.8961162027982958,0.990834012968615,0.94230450687215,0.9165117239287792,0.4635312048868659,0.795266960387159,0.13242888644533804,0.64085440451934,0.06671314681603893,0.6739762321434158,0.19892621756077813,0.7259398349538912,0.22727751758544942,0.9343775408694509,0.8109073124562478,0.9812632429093895,0.9455897427406288,0.5912163244502694,0.11614838343324006,0.7455603408991598,0.18579204720999518,0.6885013960264367,0.30172331093724725,0.9828271986867858,0.7389804655762418,0.8400700145697647,0.4340308216408115,0.5533527183011719,0.9445487517814537,0.6051111744754314,0.9812424009471602,0.9018917508815724,0.9683283194702085,0.6018134040681226,0.9472654462242562,0.5639188856223973,0.8499381497206938,0.4917618192845061,0.5245539587503114,0.03219758326916375,0.9037385923216861,0.46535963428769095,0.9651506086600316,0.8354600140389346,0.982751898562517,0.8952947401538757,0.657969316617947,0.15481323304176356,0.713102327447833,0.19413241973050538,0.9095630204921867,0.7120529509606135,0.9767734441402849,0.9292394031465551,0.5660482823881516,0.09455086076284035,0.6893698247609754,0.29225776486235233,0.9762122808534033,0.6669115207567649,0.8472847889461937,0.5272979474589431
12,3.4528514850631247,0.5430031723651745,0.6804273883466431,0.020600023379485112,0.9376817261958171,0.6169481638324246,0.9820673983417186,0.9173278531699623,0.5776609626018175,0.18175413776760208,0.9537428951505624,0.59061237318678,0.9535525272872927,0.3487826690891748,0.9279711320225201,0.4269464020621678,0.7920591177978337,0.036669708428874626,0.8716573828441039,0.5980886824180369,0.8930046733417549,0.39273443404965536,0.620904013528652,0.10789744324157079,0.8872920833034945,0.46899814980152993,0.7501396172348468,0.02257409615172885,0.980169132566045,0.9106512586039712,0.9929819059781637,0.9465314910185811,0.9232392444678912,0.509139867438339,0.7850673684418029,0.12498159498013701,0.6425804300713271,0.1298804279313042,0.65748986870524,0.21346249517926774,0.7242933240445587,0.2471416234223797,0.9438423946549375,0.8330891362658783,0.9757102730087546,0.9343725064059474,0.6039113240862094,0.1214209645113836,0.7170259614489642,0.20699397617433224,0.6717491053995746,0.2966102228005104,0.9752800406200066,0.6879466480087113,0.823903895826559,0.41892909035845144,0.5274473521896202,0.9190876898406243,0.5806575828390153,0.9785753227952713,0.90280814414279,0.9414962474171689,0.5511230031327021,0.9253849142955831,0.42015620919137947,0.8547630530457758,0.5337594103369315,0.5371902193054041,0.0341751893888172,0.8496797877722996,0.4098738479354826,0.9658767546156682,0.8451663838189138,0.9823529116314579,0.9100262588571032,0.6279341706094486,0.14108845555243102,0.7085810593900481,0.23086187640770647,0.916153247712937,0.725258924278583,0.9719622917662036,0.9092314435429423,0.5778327941726634,0.09690260960126881,0.6694109397390229,0.2838224617093827,0.9630523880388964,0.6372408410082614,0.8368333620092796,0.5132595401089819
13,3.4135954670250004,0.5454411937492657,0.7288769316719628,0.031448375935864026,0.9710448516760236,0.7194155401889427,0.9871574250512811,0.9242350765856234,0.7079520105744612,0.13895961926492076,0.9823721152087505,0.617630302103233,0.9467081664961469,0.32344828759126154,0.9274684347543825,0.5301204659202682,0.8117267688755434,0.04681257068008354,0.8162026356495992,0.6042775238963909,0.9428422347680739,0.6308819096734704,0.5890190482816111,0.10821433787312508,0.8984662467182704,0.4979595190619273,0.7735943274868616,0.03684538563387657,0.9735221726254801,0.8682095404395912,0.9934405231599154,0.9298941196578807,0.9313630985892687,0.44995640680125165,0.825351692506842,0.16139610099702037,0.6372425625853565,0.1531052315154324,0.6346242324189189,0.187676759554728,0.6756756548125653,0.22097428404711983,0.9384895755226629,0.8125616447621562,0.9797135969370429,0.9429197579291546,0.5928991690330567,0.13105639324903995,0.7108321255143875,0.18820843597093245,0.6170999820711758,0.25448269329848394,0.9814278181240991,0.7244630334313414,0.8298120538889898,0.4321212813870431,0.5535289452815226,0.9547676618406334,0.6489246873782438,0.9837131065486224,0.900410070163199,0.9737936278847678,0.5927588658397721,0.9264073226544622,0.5133221047730296,0.7936588965062559,0.5286520359671101,0.4880743559568089,0.03478499857049212,0.8645089849002453,0.40075020788194615,0.9591675901945643,0.79403371943289,0.9821501220504475,0.8865924340445521,0.6107733377532673,0.13292324994597224,0.651857945425361,0.17484878984530855,0.9129189485941216,0.706535193821685,0.9764412522051976,0.9142869801307022,0.5706322484100261,0.11650151972952208,0.6044788017856068,0.23281279045297887,0.972969615980949,0.6666538505357968,0.8266446136682085,0.515299468657075
14,3.3875981188173396,0.5511984490659148,0.7107933474393102,0.025861081029647546,0.9361077416193375,0.5505585219903917,0.9822229237042812,0.932004317847883,0.8250482641298985,0.43951560867733463,0.9928643862019749,0.7495808239940805,0.965815104684074,0.4117280301400759,0.9576512916364103,0.6097443617078073,0.8132109934420231,0.055507983024166395,0.8481961609322448,0.627656899549567,0.9745708662908247,0.7082373346613235,0.6234491024047877,0.11651876525860286,0.9339224784040652,0.5750630870779856,0.7771589300140462,0.04029225242065662,0.9819823237373132,0.9150897217405657,0.9930413351773537,0.9495023914595031,0.8908078516768365,0.49390412957691743,0.8321415640780494,0.10301838901700633,0.670691547518325,0.16519847460814288,0.6719004569799888,0.26683051242876105,0.707322065104153,0.26180265122935453,0.9514954230386523,0.8344626091980973,0.9776963091274685,0.9431145230707167,0.6028198039536916,0.15371854268831753,0.7317894609289652,0.21335713687204305,0.6718354316681586,0.30739224472200427,0.9733205343558288,0.6611438465562413,0.8460713730095407,0.46580016309796896,0.5465679795576702,0.9174217590124971,0.5015844562794654,0.9760864751612315,0.9106218456944853,0.9843650466014416,0.7243884210891746,0.952285954837874,0.5673230341665599,0.8261255531991268,0.5506689394081601,0.5304094044479568,0.030689985829963785,0.8982893556793468,0.467043243946214,0.9643089530951634,0.8371881225083634,0.9759571919356297,0.9032638876227865,0.6445782981245416,0.17825334926307804,0.6825706260032102,0.20319307215958501,0.9159401673038112,0.7150455316121022,0.9749742096180217,0.9292067996823786,0.5722336256204349,0.12362843082425404,0.6571522789214782,0.2905899338458141,0.9585874939355783,0.612050494473726,0.839455399593584,0.5340462217753819
15,3.3585799248822776,0.6074198096580895,0.75942471377254,0.028935872188637295,0.9544549987562115,0.6960950030394512,0.9758702736043953,0.9072417526805889,0.7286170223646369,0.19802241273397486,0.9839831213913561,0.6469654747319313,0.9459005602052744,0.3872388914922822,0.946908285931763,0.5282340261011624,0.8365802997431997,0.062127782752929885,0.8439532682921377,0.6002560923212252,0.9408185260023332,0.4696305544136841,0.6661707653648392,0.13662709773575865,0.9184381786709488,0.5177282412659503,0.8023852450479511,0.04852060925335953,0.9782562146414484,0.8954476554901583,0.9936547474294349,0.9378071990855312,0.8925810191845709,0.45602659517805644,0.812617102154936,0.20723400020277624,0.6510732178236762,0.15217787805695066,0.7019512391690095,0.2582289542840654,0.7790559159427645,0.2743087297239686,0.9418060010334766,0.8247389033014279,0.9797882113725934,0.9477509417807111,0.6644475162006699,0.18449768904853325,0.7171125148989814,0.21770015485428829,0.6604221692528914,0.2975221207317115,0.9855418609262748,0.7377648569581244,0.8485312688145507,0.4468780572848938,0.5665697418274738,0.9324800465751484,0.6190486547144991,0.9720552224864446,0.891652976995905,0.971305379294883,0.6100998878473168,0.9428373127239756,0.5174181515394798,0.819297526132221,0.4995401839472725,0.5569090221882437,0.05148891621540867,0.8927871792908083,0.43000990814120277,0.9606217785695014,0.8092829136185764,0.980698261660087,0.884975180509907,0.6637221368371354,0.17689665209158553,0.7523988764044943,0.22364344754379678,0.9099245857900596,0.6947789491989588,0.9778581540067952,0.932850657947781,0.6263080397958591,0.12599831770470957,0.6413907599288403,0.26387564122885576,0.9730404811354623,0.6771420261591623,0.8483521726762475,0.5255439040877762
16,3.3279688539831076,0.6247503231112678,0.7798496879242219,0.03157357510429242,0.9529998786846806,0.6746814947724065,0.9872759764875965,0.9356381329709855,0.8164516796543825,0.328637082028002,0.9935239928279375,0.778987875654496,0.9713013406603818,0.513458380829861,0.9531458902124704,0.5887359289956053,0.8561745275642137,0.062395932315253866,0.8567795717593402,0.5582044058244076,0.9601484391765139,0.6135495528689314,0.6531402928474128,0.16242221728761239,0.9408360919999895,0.6093866804932129,0.8265163670244358,0.053136313214966625,0.9818139937685592,0.9082118186502288,0.9934500748817999,0.9296043471535976,0.9373027294530655,0.5072347043242088,0.8683896954703307,0.19761031909366888,0.6774312738691505,0.19197328963932486,0.7459959749347698,0.25820920352488197,0.7900334982559325,0.28239130747989294,0.959844143296109,0.8753080288941766,0.9735484628301371,0.9203117732884979,0.6298179700014562,0.17720703411930774,0.7946430907126018,0.26174171968012666,0.699127005537709,0.3452438489529689,0.9878694859986361,0.7644669054658133,0.8687465821474553,0.4819354566394895,0.5734425940611507,0.93503699018399,0.594225929341387,0.981972335327495,0.9125730529466077,0.9822880030525102,0.7254948083855016,0.9464351711929537,0.5561374268808991,0.8360605928800163,0.4621978761673551,0.5419280922233771,0.034200391873121565,0.9106075767029963,0.5031917052174788,0.964228752644943,0.8292362116388202,0.9716433615606386,0.864934976713454,0.7074402429959116,0.17731845901016857,0.7393138041733548,0.20215789968580575,0.9220682609274561,0.7350981962730158,0.969962198721447,0.8931921190802262,0.5929114876233118,0.12869606751446008,0.6772233226861447,0.30152917428280024,0.9796138082700413,0.6901882665418544,0.8536708750729116,0.5381482850970597
17,3.2970449909061847,0.5518152978498414,0.7292957502584831,0.05738430070813731,0.9673774800370945,0.6780072924584652,0.9890830309709147,0.9474183903786997,0.6509145011850677,0.21719500561681554,0.9843953794366894,0.6829710525862689,0.9637387462234048,0.43555948377682036,0.9223780418909534,0.5414147882778563,0.8493879483211374,0.07001473702114791,0.8777342358125281,0.6806015049819304,0.9564020533270198,0.5817113409278379,0.6562269399136649,0.15169896610323602,0.9172606823616081,0.5467471550430593,0.8302848360482693,0.0749898912995057,0.9832817960834599,0.9193242726195344,0.9895679389593849,0.9125557423041968,0.9067527930500813,0.4834394583532217,0.876833601098659,0.25343406548666314,0.6974850757367428,0.1750008184562172,0.6565349024695877,0.25424535911143364,0.7047900381831034,0.25970119244956064,0.9530256465308755,0.8510356917473432,0.962153517080633,0.9196651865483051,0.6343048046818116,0.18711837635549106,0.7245564991532294,0.2480784056306385,0.6114016499308795,0.26942472960856445,0.9730932028181464,0.7194252695720464,0.8449331189062856,0.4660831722085768,0.5172261873292802,0.9493984233992081,0.5955780542968735,0.98561147421758,0.9306758494569849,0.9694191176391334,0.6251675910969924,0.9158497042442035,0.5247711427780241,0.8550992703355895,0.5775124609182672,0.5464239389071668,0.03163864998829746,0.8794093263511458,0.42588836630965854,0.9632290168522757,0.8303880073903532,0.9640148946749842,0.8381412302519641,0.6232872756130147,0.16130718250384235,0.6567813001605136,0.17688436090890167,0.9200045966002685,0.6900071736512179,0.9572078302331952,0.9028547640171393,0.5792791251793035,0.12398274509601659,0.5952063763269998,0.24190417056640512,0.9529284051680167,0.6481628080824823,0.8320718797439124,0.5203040348320888
18,3.2632259120253164,0.617583127717072,0.7347583403484025,0.05061969844356748,0.9468027218201601,0.6729318962495011,0.9838453670636382,0.9228319484528742,0.6864050134049822,0.16049700384066218,0.9792925871196715,0.6285067543607333,0.9703972911038158,0.5000228197952062,0.9019067789516965,0.5187916122162227,0.8345358001776408,0.0850602092342181,0.8530568974804688,0.642037797830024,0.9423935736393845,0.5330008440371773,0.6281249764107495,0.20597890600100613,0.9206390462222278,0.5768631684129448,0.7682239899565666,0.08003934612995985,0.9857967750940594,0.9265258349726521,0.987430303961015,0.8846602167462834,0.9115969754384015,0.48854501441593523,0.8119753853028048,0.2692186596079564,0.6304308987401505,0.19105526573234874,0.6492888236484169,0.27610891332865717,0.6717655108243133,0.2558656192058096,0.9606838429157876,0.881217946947332,0.979769445704133,0.9473647084963456,0.5921588985364787,0.18744399446160492,0.7246798378195041,0.2678404281537979,0.6143695135114228,0.29598172246139465,0.9809947855578448,0.7596690228183491,0.8327432069520668,0.4695645904750986,0.5731782535906247,0.923734338648909,0.5699244532218942,0.9796399876448105,0.8997314333795097,0.9625374961870569,0.5868346073867716,0.8899727991019386,0.49535737199092733,0.826615440232348,0.5227740703158231,0.5146603042615515,0.02839914896653776,0.8783191442258639,0.4381785023131458,0.9620963788822984,0.8196561888566113,0.9661755768516008,0.8262934960164353,0.6113126450290811,0.15028501033421748,0.642521268057785,0.19930577134965394,0.921077702050406,0.7262855610502913,0.974373775556847,0.9186490562710072,0.5526284832880198,0.1307279703772412,0.5994220467762029,0.2594652391131125,0.9658904985402557,0.6818767759576346,0.8231861178334359,0.5158590410563009
19,3.228547571772989,0.5920573375631536,0.6427548871648251,0.027550183299586577,0.9268779740804578,0.6239460927000268,0.9815634568739107,0.9174079602912335,0.6446711531684238,0.17689602840115382,0.9808908346817597,0.6406132559620192,0.9710598082589091,0.48839675796585336,0.9282817030691866,0.4453309328510682,0.8032709577810235,0.08219943913320943,0.8052460511368004,0.40887754842778634,0.9151579419562271,0.42700383799706965,0.6646169605538768,0.19370168021954262,0.8834086597593829,0.5048484334719933,0.759993751002795,0.07325113714296357,0.9795802658563127,0.915913536383632,0.9934249847954413,0.9346906867220396,0.8503582022864292,0.3725966863131798,0.7876373241866014,0.22212414292126112,0.6368153645418035,0.16339191025722904,0.667788132806197,0.2718321840505371,0.6011181985398928,0.18669151984045237,0.9377719428534186,0.8380703765666506,0.9593450929970757,0.909620518822445,0.6083653251055774,0.20195860517041314,0.7723398814463185,0.3090725498933772,0.6833406092482393,0.306258752996478,0.9727754810954241,0.7326371891015784,0.8214790363556274,0.43749545949626073,0.542690985989955,0.8984454171747003,0.5095309134916233,0.9778649924428134,0.8876117200322141,0.9692213296312304,0.584125900638025,0.9216320538836836,0.43069191215673286,0.7855041235909423,0.33178739258066164,0.5570949979813251,0.038625674485372616,0.8236614718756028,0.3847790212886134,0.9560218809985018,0.8072278064304081,0.9716713000632854,0.8676944417712266,0.6003955966408503,0.14439531006320877,0.5589269662921348,0.12008262202462523,0.8974357415919105,0.6747805405568045,0.9557845408352023,0.8932628459224011,0.547592382529994,0.12931712008304777,0.6616801846103222,0.2561423305750525,0.9466412642343565,0.600678906999726,0.8143483902735535,0.4787959036937339
20,3.2023493908866567,0.5900011749500647,0.7324940529909476,0.05990774604055195,0.9606645628693157,0.7035404674409038,0.9801902219135761,0.9040236378785272,0.6668594272824644,0.2351995428412808,0.977640525351582,0.6729564893194881,0.9680898647602388,0.5944955397579877,0.9242129974545289,0.4751811200138629,0.8443376841845943,0.06970050477951524,0.8206839045747287,0.5229197998574503,0.9538352406113674,0.6770039428710543,0.6504867699241696,0.19557303279708288,0.9039838761172477,0.5648298511380623,0.743564306966506,0.08013111455576757,0.9879582207710832,0.9415923613130537,0.9714602958296074,0.7710330524362448,0.7871045207598909,0.331219474696374,0.7892337969123208,0.2718828481384649,0.6236838468862342,0.19522454489960045,0.6984615574123477,0.2742469761438432,0.6542942508990249,0.23781058878548986,0.9594476461982667,0.8792776455158999,0.9661710941245848,0.9137698954761829,0.5861666530144167,0.18835830302241388,0.7976240173680479,0.3173559272840714,0.6156563346900749,0.28362835522394253,0.9706503113637314,0.7263287296855037,0.82826753773965,0.4648919804581777,0.542162305048903,0.9364632969074194,0.583840803174992,0.9741662107899505,0.8646773963923985,0.9605935688178315,0.6177353355248607,0.9117039419714175,0.45584096861885304,0.7979332893275447,0.4253010115215433,0.527776536984701,0.02785090724982263,0.8512185976282156,0.4381422534410682,0.9611453772151068,0.8242778882233472,0.9478024013299982,0.7066108884210419,0.6332660297943726,0.13106183581747624,0.6061231942215088,0.16798558176587697,0.9194939103527255,0.7067764650258798,0.9598381168922757,0.8861954463799312,0.5266481411460615,0.12271722465971452,0.5907767773874405,0.2398722939438806,0.9419528723360348,0.6228029722483382,0.8154313914439127,0.4888555795255641
21,3.1569308560906673,0.6602338150628598,0.7535287693672786,0.07861326521133143,0.9473004073662226,0.6630431351127761,0.9899897341590951,0.9499173794636963,0.6914649503094097,0.26703489000404207,0.9897508299193742,0.7310538483252654,0.9809327987001372,0.681463345984875,0.9581026061618451,0.6237819823075322,0.8843240139335122,0.12971302278117178,0.8920277171490494,0.6713312149720632,0.966594604305361,0.6373313768693328,0.6861198248244399,0.26668055397719126,0.9346906190145248,0.6546094376299294,0.8054323349012124,0.11855667799980807,0.9812553294951408,0.8983380414494143,0.9924349017361566,0.921797391905126,0.9501159143955505,0.5939950304038889,0.819457832710738,0.21721167122076643,0.7289457399459052,0.30421569132040854,0.6989088745105979,0.34490685696370477,0.7742264238914865,0.3155705418534052,0.9670372041002117,0.9016182999413376,0.9776599328661442,0.9498718697692147,0.6448444098587447,0.2308184915854804,0.7736594985984477,0.3642874882827297,0.7205181332625289,0.407154234188041,0.9780644851494217,0.7470161629959958,0.8648995342550976,0.525766611635328,0.5832231914706142,0.921996349020801,0.5661505562811829,0.9837810228757073,0.9188519503250073,0.9685118257827178,0.6645371361985873,0.9473394931134235,0.5537387818169556,0.8644524521596375,0.5494151168217121,0.5260153505192718,0.034169980455249264,0.8801194094686398,0.4694198061070247,0.9577991419400245,0.7883668441670192,0.9680160649529377,0.8616178715988732,0.623747476117289,0.17227396537053882,0.7162038523274478,0.20089749721848266,0.9218077586428663,0.7405038784842831,0.9731193697768478,0.9266545355580614,0.5821835907100317,0.1360028126898607,0.6974133805168037,0.3242560876923162,0.9468090822650996,0.6058176446178971,0.8424572262618466,0.5320421540876907
22,3.128506675168247,0.605069909528845,0.6888697396461371,0.066128983673578,0.938918519539187,0.6110585116741959,0.9881143562029945,0.9500764966984294,0.6406430952223697,0.13976328941168759,0.9671140856169963,0.5925393551572792,0.963243944190177,0.4735316875225434,0.8876045886718802,0.3890987236777708,0.8122084882356743,0.08489467193310908,0.7785820982073615,0.44674404582781896,0.9123619880190778,0.4161703603347548,0.666020482712063,0.24488733840099786,0.8928766922878386,0.5506877121322428,0.7751134390033132,0.0764702021759818,0.989641458513194,0.9546100293483613,0.9922255374096383,0.9247558531065042,0.9264552863638065,0.48823441974671794,0.8189439861221995,0.2936613633741198,0.6520652701271359,0.21837767863001564,0.6493989347836757,0.27906434983058603,0.7005155408366169,0.2262966450024376,0.9482491833165534,0.8326484729486234,0.9787941998620235,0.9455870845356206,0.6196890586318625,0.20407723621485768,0.7580050153202835,0.26208294593531645,0.6486488311089674,0.32137270795001793,0.9802583923263044,0.7134067690245774,0.829790854318359,0.45023949747185177,0.5417217375980262,0.9110271124094403,0.5206505590820838,0.9823716594071955,0.9251744282589922,0.9466303821781689,0.5135624569719148,0.8751955874098701,0.3509489229688271,0.757699140931167,0.35373829142539553,0.5272147440577942,0.03738202353254711,0.8390037451208596,0.39403364319548095,0.9607435015925804,0.8277703803062033,0.9728227430712514,0.8551875417547665,0.580811020201107,0.1172660392540181,0.6504121187800963,0.15862351232394867,0.9062545142657157,0.6266820468820476,0.9747118381730148,0.9257844950705626,0.5615033279917415,0.0987837683493178,0.6156148150744742,0.2530767873193173,0.95722003007486,0.6258579793962116,0.8137022675462086,0.4740326797557272
23,3.1063687982044885,0.6250440606274233,0.7386706633601043,0.13786296896068054,0.9644140708342587,0.7047328012186875,0.9872007804142597,0.9491721254490585,0.6939079032386665,0.2863860976046524,0.9795194937979049,0.6830272675627693,0.972402801945552,0.6086023504649667,0.9262164516118069,0.5703092709517513,0.8351859220566241,0.09819429416071657,0.8546389055598484,0.6248289292270179,0.9313366052985885,0.5189776442044963,0.7574663930959644,0.34458167401106443,0.9199296747963479,0.6258583611068986,0.8008701447121379,0.09265264120047959,0.9935413272292847,0.9679769926693785,0.9927983043944749,0.9250234118015862,0.9435698307923338,0.5875933738062089,0.8384809328089732,0.3021859001041303,0.705830035890749,0.3055493810239455,0.7075362058894961,0.3738165945799243,0.7711003796163781,0.29800965919444294,0.9595075888229319,0.8926277360128685,0.9779256347332198,0.9490557902641124,0.6205329838357361,0.23152644332437813,0.7558194115230933,0.34779060792391836,0.671467087921588,0.34906693277262757,0.983147232406371,0.7912542791940871,0.8570391064071805,0.5217947511074942,0.5663935148471231,0.9411502643299791,0.6051546177593239,0.9811976107275366,0.9250424554004331,0.9542559991204631,0.6043091196867503,0.9101461508570442,0.5174728855520401,0.8244805540459434,0.48822058842125304,0.5994835198818002,0.04424938197939044,0.861819938740553,0.4302675250949645,0.9632767278855121,0.840852737338297,0.9743461762549096,0.8620611230514547,0.6334069779706476,0.19163200487038728,0.7128587479935795,0.18262235222354548,0.915208979936377,0.7075097446196134,0.9690496954999568,0.9247234169334835,0.5459514935450764,0.11473368702254275,0.6275805345003684,0.2624781750980699,0.9583098738522376,0.6627482978835695,0.835782702821374,0.5227548820584449
24,3.0716733150652495,0.6110327811068029,0.768081119478635,0.08652769338378341,0.9068929431110123,0.6336299339779502,0.9612764300423035,0.8761046675684105,0.6714847367300112,0.1564456376640745,0.9857192463837353,0.6540448035025979,0.9841350827934325,0.6966463333565921,0.9259084746205414,0.5851253126913173,0.8492226252316365,0.12699443813593625,0.8535019567902701,0.6511057485486837,0.9491916864455231,0.575368219643953,0.7145349005640407,0.29985584302092494,0.929141552423061,0.61016378229185,0.806010789372201,0.1375947676200172,0.9930989264453248,0.9687260860032179,0.9786409036547747,0.8703614675138791,0.926941306289048,0.4840146248800124,0.8172639311892393,0.3102650697365348,0.7240942542442859,0.2773134658951745,0.6852441276909113,0.34794287052574024,0.7851739273549463,0.32152402973879424,0.9560981392905676,0.8819536836227766,0.9754954677376482,0.9393132297622152,0.5738950779088394,0.180731851239614,0.79921682692081,0.368856860115438,0.6919649148611501,0.35529120764902894,0.9785279071359785,0.7797251701218498,0.8534906636426893,0.5067548768542449,0.54524627720504,0.8771308816565746,0.5339215960425568,0.9563813037914587,0.8394721404836045,0.9749027497383486,0.6009179855958151,0.9077310996934501,0.5337518764398478,0.8122610610748406,0.5015521332302237,0.5509565082937473,0.03413366399822303,0.8786066509898058,0.4568757897738575,0.9607541317704875,0.8253772098107093,0.9504644069754593,0.8082888530230977,0.5963259927271997,0.1504131952823735,0.7244594703049759,0.2047220175144227,0.9094605440101861,0.7132359883019791,0.9689778442711383,0.9191802409012134,0.5014610353885458,0.08622707579445327,0.6532304686185916,0.27856610442628726,0.9439390435073112,0.6326594246170447,0.8229401995507575,0.5074559559522318
25,3.0404661974942218,0.6353836211960991,0.7258443994468838,0.14816852669633312,0.9402292117486057,0.6949208003425553,0.968619244250584,0.8944799540863313,0.6336009870198228,0.2314760246311838,0.9726184387271387,0.6510242671038843,0.970627227687419,0.7221477554360035,0.9148786405043785,0.5083652654016146,0.8303663132166088,0.1413490045117595,0.8235002817372762,0.6241456097887385,0.9407466355418432,0.5441718694704292,0.712544605360253,0.3357107627835774,0.8966413170942488,0.6130639483860517,0.7579826716996428,0.11876287288685072,0.9946145183116746,0.9726974773193557,0.9943771636625998,0.9366922067148782,0.8954032256476382,0.46283507264972634,0.8456605918435067,0.31592055592149415,0.7239602871302083,0.2849642584323784,0.6633829175192112,0.3387181373842347,0.7471389290960592,0.3494100497720269,0.9620163129969287,0.8972763079463764,0.969312757517747,0.9328207212517163,0.6133747337811271,0.24034053466254,0.7689755682217845,0.3639939734280091,0.6490301623858236,0.32325521298987214,0.9715266915591663,0.7455314944228302,0.841806685911853,0.5150862563238751,0.560754251475901,0.9082402669149453,0.5865390776995815,0.9637518866384792,0.8697571530044967,0.9456021001098344,0.5791590711642672,0.8995980311730926,0.4743068240980768,0.7875166077240834,0.4813945969657788,0.5233899993986926,0.03513067033062512,0.8176784435630918,0.4149877067756973,0.9609965297709362,0.8221716667571846,0.9682006474198634,0.8643871842329629,0.5747681418196064,0.11268793704797919,0.6733242375601926,0.19818668275165718,0.9071256350361578,0.7059660285710916,0.9616575111118332,0.9088966660674223,0.5393298202864454,0.12159652381646455,0.6105942448642321,0.2520607224411685,0.9253715942868668,0.5960926736232254,0.810446606104897,0.50145757408423
26,3.003283364920425,0.6479849606391729,0.7729375064778792,0.15812921518546402,0.9460172357616866,0.5925192580014202,0.9678196000038644,0.9181792257045884,0.6564108481716782,0.2723728653006283,0.9853980164889475,0.7292374858534219,0.9878786936038458,0.7959197136885015,0.918743067450833,0.49001378354851244,0.9219339903185156,0.25622526502932924,0.8800825020366129,0.7083527100838611,0.9444739327037555,0.560053551398297,0.7784564908130962,0.38874048808382927,0.9079918360768034,0.6147691274941469,0.8548564841790591,0.18054293040076858,0.9961024259580432,0.980934008814708,0.9927385388670493,0.9515174622754724,0.8813520158820775,0.4313260174039679,0.8419509085951027,0.31049251811408957,0.7238489816443974,0.32868473436138945,0.738838356815885,0.4094026219085547,0.8218171798996836,0.37981585856388905,0.9580895217878288,0.8852388140030978,0.9674929574652978,0.9314253958197851,0.6823398477319063,0.2986912134916433,0.7900678365894116,0.4185134901282783,0.6492114732765153,0.353041783757037,0.9863860287808042,0.7619260076999818,0.8674321645146377,0.5425409825428716,0.5563485769671337,0.9199881388927651,0.5246477541268147,0.9662590756680919,0.9049688427644798,0.9628449568369439,0.6673325487949956,0.9024318898147748,0.42080879054440834,0.8421679494784232,0.5466466518781591,0.5590037195158617,0.04773763863579243,0.8512914159352402,0.4350548596075855,0.9619076807477098,0.8370645801916147,0.9675191363047344,0.8698275148635525,0.6448997478628614,0.17440147096356665,0.7258158105939004,0.22732578176307813,0.9015909155800155,0.6841874277916568,0.9634669362503111,0.9059738875490987,0.6266293355419915,0.1356536120678201,0.5962020943648677,0.24666938935950541,0.9596450200875457,0.6521877946203162,0.8344789889672524,0.5175305340951528
27,2.979945302275706,0.6492480319586418,0.7555448749548128,0.18899247828587507,0.9587894855154819,0.7538240696520071,0.978877152675017,0.919311713119108,0.6729771542342536,0.2681509163308434,0.9764329695497174,0.7029315449072875,0.9784848084179981,0.6060370607939419,0.9230926977647139,0.6129110113441568,0.8679192295871572,0.16256899628717783,0.8717841384184146,0.6847619936689169,0.911154551559007,0.4461785508642524,0.8052658398885097,0.410987806864646,0.9122476685162555,0.6302906947316577,0.8278892463765668,0.16792973750260207,0.9973884561462052,0.9871810258651685,0.994895310942012,0.9328330015512154,0.9569355537841701,0.5811929912203904,0.84885012041226,0.3131218884102817,0.7509687319069297,0.28826410047669887,0.7580130167735838,0.3753690110440776,0.7630473931406274,0.31611514972785915,0.9672197397592653,0.9073614014954319,0.9787928680771008,0.9476966789267165,0.6598947411533421,0.25254048173556065,0.7967206964736511,0.3900324360805646,0.7286599574480959,0.40125144704821847,0.9885944303995576,0.8065523773356136,0.8704015705336426,0.5405534063565489,0.5577583928099392,0.9286574988047389,0.646543633571654,0.9747918118693817,0.8939987713240204,0.9444571392847942,0.6057667081539398,0.9041768490134278,0.49703838532585937,0.8353363774122524,0.5442321371066144,0.5710156941235085,0.03932646470018744,0.8443989957769568,0.4047784544130648,0.9613034823963755,0.8414918304071273,0.974673904308431,0.8422942972526786,0.6590281544766897,0.1423742655779342,0.6747255216693419,0.18513888107351437,0.9071715727694686,0.6785194228966229,0.9731610922272921,0.923078482169074,0.6061406299077126,0.11463934413151264,0.6782116906866829,0.27987789003688207,0.9644015515575148,0.6642105025225464,0.8376032478927856,0.5189568419164521
28,2.961606886899229,0.6683409705087534,0.7470230827373685,0.18236360459569217,0.9474684243182344,0.7112944303949371,0.9835185473947387,0.9391888436510606,0.6202589009362348,0.20781316556310933,0.9792191899147368,0.6790118515653171,0.9902558362670517,0.8327108694785958,0.8788063450237315,0.4911140021606268,0.8315954281946513,0.12872330320251074,0.8413599578843819,0.6389048914410356,0.8687251712363036,0.39653533227181914,0.741979348771431,0.3627924002453733,0.9191417163910065,0.6363243540246533,0.8196872968020334,0.168449259408295,0.9972472448087373,0.9873404326728885,0.9922240239325791,0.9215559998792493,0.8962522944923649,0.471200131684848,0.8296641927121835,0.28902109358300665,0.7373148373690883,0.3406989340155807,0.7307914936368946,0.4150337036862126,0.7225746505143776,0.3081055602740398,0.9702437012741815,0.9227004896678522,0.9704062606890286,0.9333038945770603,0.6220550276685597,0.262876185186647,0.802851845749092,0.4407936680804151,0.7094351391293618,0.4006821373267543,0.9708982730272664,0.7513894925513758,0.8508076242644468,0.5315356935072675,0.5744999559432549,0.9162159179032948,0.6083569677077232,0.9808874019067608,0.9175195007321917,0.953002712983193,0.5990571717443619,0.8502182548249211,0.3886186917692727,0.8126443193099535,0.49630697487017705,0.531776949309785,0.031052129958875505,0.8538517745695874,0.41235721308054657,0.9623790268286724,0.8429556939678101,0.9608518794764388,0.8473819415625209,0.6213344056695697,0.14081482215511293,0.6604265650080257,0.18193559014767727,0.9112531050374045,0.7158502297036347,0.9622628189459802,0.907397542548411,0.5435553795030919,0.10335708630756807,0.6719114365732768,0.2546277465984193,0.9279394827155216,0.6227408520555968,0.8200319644103423,0.5043956346818688
29,2.933725796915672,0.6436376454000705,0.8069447920379598,0.26792758736253375,0.9340905170224728,0.6835267000573333,0.955871205412333,0.8884204474395098,0.703796026755081,0.2788106961918032,0.9837650379941413,0.7461090038648931,0.9769378980317514,0.7269523101285388,0.9567018162451404,0.695574547519044,0.8946760893179425,0.2703630508936107,0.857970977217882,0.7188606219135161,0.9444205921372465,0.530618947340919,0.8026549051258193,0.42384125584744464,0.9468924629313009,0.678569344872094,0.8385412532335746,0.19319098948874436,0.997919966775704,0.9904316843277939,0.9970227551948502,0.9632895464076593,0.9032651865362942,0.539963011906232,0.8355826277799132,0.28305357639639567,0.8321080067959589,0.3844478732029238,0.7186386530719222,0.37088438234347654,0.7824914263300029,0.3794201096820488,0.9621894797196802,0.9030639753643714,0.9692841952566338,0.9360216849821954,0.6693933850298529,0.24310465693805725,0.7828136240039328,0.4252705965037033,0.6663863110721091,0.36547166204367004,0.9821714363458356,0.7785165176562606,0.8731742548990513,0.5640655684874912,0.5509736540664376,0.8921602885097097,0.5920126230491611,0.951759205652765,0.8642070303993581,0.9588600943561973,0.646640281651161,0.9438525970381244,0.5774494126406966,0.8133911590426877,0.5495329242287799,0.5749022875452054,0.04330518261905891,0.889538185459858,0.4459346288108594,0.9608660979870834,0.8301977203326129,0.973969163427056,0.8811751076832748,0.6192732347888978,0.10908045752527336,0.6886918138041733,0.20386351608059392,0.9005189409048519,0.7005417694063345,0.9651558462752928,0.9058520227078902,0.6026077771175811,0.10072344636413628,0.620594465365352,0.24849108797541913,0.9439032215610736,0.6697379788880995,0.8312527736772444,0.5230465743976693
