epoch,train_loss,train_accuracy,train_1st degree av block_rocauc,train_1st degree av block_prauc,train_anterior myocardial infarction_rocauc,train_anterior myocardial infarction_prauc,train_atrial flutter_rocauc,train_atrial flutter_prauc,train_bundle branch block_rocauc,train_bundle branch block_prauc,train_complete right bundle branch block_rocauc,train_complete right bundle branch block_prauc,train_early repolarization_rocauc,train_early repolarization_prauc,train_incomplete right bundle branch block_rocauc,train_incomplete right bundle branch block_prauc,train_inferior ischaemia_rocauc,train_inferior ischaemia_prauc,train_lateral ischaemia_rocauc,train_lateral ischaemia_prauc,train_left anterior fascicular block_rocauc,train_left anterior fascicular block_prauc,train_left bundle branch block_rocauc,train_left bundle branch block_prauc,train_left ventricular hypertrophy_rocauc,train_left ventricular hypertrophy_prauc,train_myocardial ischemia_rocauc,train_myocardial ischemia_prauc,train_nonspecific st t abnormality_rocauc,train_nonspecific st t abnormality_prauc,train_normal ecg_rocauc,train_normal ecg_prauc,train_premature atrial contraction_rocauc,train_premature atrial contraction_prauc,train_premature ventricular contractions_rocauc,train_premature ventricular contractions_prauc,train_prolonged pr interval_rocauc,train_prolonged pr interval_prauc,train_qwave abnormal_rocauc,train_qwave abnormal_prauc,train_right bundle branch block_rocauc,train_right bundle branch block_prauc,train_sinus arrhythmia_rocauc,train_sinus arrhythmia_prauc,train_sinus bradycardia_rocauc,train_sinus bradycardia_prauc,train_st depression_rocauc,train_st depression_prauc,train_st interval abnormal_rocauc,train_st interval abnormal_prauc,train_t wave inversion_rocauc,train_t wave inversion_prauc,train_ventricular ectopics_rocauc,train_ventricular ectopics_prauc,train_ventricular premature beats_rocauc,train_ventricular premature beats_prauc,train_mean_rocaucs,train_mean_praucs,valid_accuracy,valid_1st degree av block_rocauc,valid_1st degree av block_prauc,valid_atrial flutter_rocauc,valid_atrial flutter_prauc,valid_complete right bundle branch block_rocauc,valid_complete right bundle branch block_prauc,valid_incomplete right bundle branch block_rocauc,valid_incomplete right bundle branch block_prauc,valid_lateral ischaemia_rocauc,valid_lateral ischaemia_prauc,valid_left anterior fascicular block_rocauc,valid_left anterior fascicular block_prauc,valid_left ventricular hypertrophy_rocauc,valid_left ventricular hypertrophy_prauc,valid_myocardial ischemia_rocauc,valid_myocardial ischemia_prauc,valid_nonspecific st t abnormality_rocauc,valid_nonspecific st t abnormality_prauc,valid_normal ecg_rocauc,valid_normal ecg_prauc,valid_premature atrial contraction_rocauc,valid_premature atrial contraction_prauc,valid_premature ventricular contractions_rocauc,valid_premature ventricular contractions_prauc,valid_qwave abnormal_rocauc,valid_qwave abnormal_prauc,valid_sinus arrhythmia_rocauc,valid_sinus arrhythmia_prauc,valid_sinus bradycardia_rocauc,valid_sinus bradycardia_prauc,valid_st depression_rocauc,valid_st depression_prauc,valid_st interval abnormal_rocauc,valid_st interval abnormal_prauc,valid_t wave inversion_rocauc,valid_t wave inversion_prauc,valid_ventricular ectopics_rocauc,valid_ventricular ectopics_prauc,valid_mean_rocaucs,valid_mean_praucs
0,4.708959785782089,0.41725671411890386,0.7878212375989627,0.16627952880433683,0.7106620129200065,0.01525228203580654,0.9598304034957807,0.7775799254024093,0.9284801369017339,0.6689577509502233,0.9272107428664893,0.5034658512959878,0.3531598452842041,0.008771804550672816,0.8436615137622709,0.17764923643420155,0.7542337945131449,0.03128226431562018,0.8186014310037284,0.08734820449879825,0.9077196406761641,0.3029023147008326,0.9469459611210891,0.21782326105521382,0.7495824918333113,0.20756578448214985,0.8554861328558592,0.2747656083393846,0.7105936904924748,0.09807327140202336,0.9406797024917839,0.7619924995408812,0.8078279147158783,0.2291176659040863,0.9129508837520975,0.2025469016274054,0.6780735993431789,0.014639940515408033,0.6261296353214688,0.05274922108618288,0.9230128739821266,0.554701282549348,0.814251768864886,0.43274930414639845,0.9701455961120352,0.89373285139341,0.6114696624834073,0.05504578708560416,0.6052806694644468,0.053750648827765014,0.6696673405472918,0.12447746205415731,0.9823772279810211,0.5450821778034488,0.682930442458408,0.032204176478755925,0.7955106056608612,0.2774261854548338,0.41805172542297087,0.7995532197779692,0.17320666258744247,0.9625396715725827,0.7764177372543872,0.9257956666359207,0.49912961412675627,0.8324626429621921,0.15682333236836166,0.8545903288550347,0.10845967929178474,0.9059531848086542,0.31193379012539424,0.7366281123797956,0.2057042458386356,0.8600048733965919,0.251800344123372,0.7009068671148763,0.09654742385425547,0.9359944868726651,0.7468411678841327,0.8004976198935794,0.22546406662905927,0.9100187372246195,0.19859406362965454,0.5817027693995065,0.042322817780449495,0.7948785361127397,0.4117407533833295,0.966048448592733,0.8853062864507829,0.6121241575353384,0.05589714891096537,0.6150279295223906,0.058087631572636814,0.661510832112815,0.12170068493681907,0.9797471861680966,0.5603900225967305,0.8124202774177948,0.3098088143865763
1,4.235404100463345,0.3947479565725075,0.83051893681599,0.22564312539557357,0.6444756030909286,0.01324323692030208,0.895889750338493,0.6067906208998779,0.9228825014331781,0.5052718983717217,0.9568854832147694,0.6103754124706374,0.440799335782446,0.005922581539882137,0.882782562585802,0.2695951004292467,0.6925591978087462,0.029656788892876616,0.7664604247865986,0.07160795772171005,0.9344501864419813,0.4301843687124697,0.9684297357803316,0.5435733277313303,0.7242216549259904,0.15129831254531242,0.8554214915771484,0.2202991096114032,0.6274831413588223,0.05178684324590424,0.9397958740387711,0.7727048479524948,0.7008669899869805,0.19625582621853693,0.8747150298825932,0.17119127793692707,0.5844205518566606,0.006847666961572921,0.5184717372491152,0.03185972418697934,0.9499126463995218,0.5418280963416378,0.7903980339647252,0.35443742271141393,0.9623672279968383,0.8718538289150701,0.5291290994532224,0.03877603943170672,0.5341258437752603,0.03646199237660187,0.5586836782178373,0.08669335979508813,0.9815945964612381,0.5842768507313684,0.7037305130512499,0.02863522651962695,0.7693137714176016,0.27618780905804713,0.389803980025341,0.8427189120531164,0.25110375103694194,0.8901501726044893,0.5900311635380568,0.954144959420973,0.6007114942635323,0.8751548412560166,0.25919979819374733,0.7767100083276552,0.09272937097903938,0.9310134041286058,0.43360573065101765,0.7157046049502575,0.14986961689711914,0.8578386228458501,0.2095633651971523,0.613509198392478,0.06091193945057902,0.9342017070721983,0.7669029258229522,0.6852379804714495,0.19659335074259268,0.8788388016329193,0.1670893867580074,0.5054033648008147,0.03236838853749024,0.7691149166469148,0.33336081623695174,0.9564171911393428,0.8582588695586154,0.5329016913319238,0.039436650761888084,0.526936989104953,0.03403406609428968,0.552228217194143,0.09426600170690273,0.9767530556835816,0.5823397102988591,0.7776304546872463,0.3027566524592492
2,4.048547720121912,0.4717895207572483,0.9077344479113563,0.44235643747493475,0.6764703533660154,0.01325831759655292,0.9826544762876163,0.8938168522692156,0.9499095023793889,0.6685444737866298,0.9625432752866288,0.6347690457125149,0.6629150594182497,0.012047251532553666,0.9131133665173129,0.35978854945643957,0.802553651927419,0.047741738735448985,0.8526444406708071,0.10738428828992111,0.9453449713359846,0.4958128168850329,0.9543970475494624,0.5426952252237114,0.7739220841016133,0.21719881909798947,0.9042336838452062,0.24764499480536153,0.7492376074472779,0.1373162065179675,0.933513251127625,0.760759994504337,0.9014001371300651,0.42968006802017156,0.9550363745973837,0.3882169204580527,0.8423359843392818,0.03809842953074459,0.6363393114128535,0.059497665469753575,0.9701470596766779,0.7743941877953431,0.878818025501887,0.6115383230690344,0.9883215863019853,0.9650618951564875,0.6462651080869403,0.055320878239644586,0.6759719573660299,0.09739853375610737,0.7557385744289256,0.1694894943664938,0.9804930071040391,0.5354983818612208,0.765617747114012,0.041974383978629196,0.8506545219345201,0.3610112656885294,0.4656033390474771,0.9091868838747976,0.42545181348176386,0.9801833969063951,0.8691224556571256,0.9584963156042785,0.6294169113705709,0.9033713389882455,0.3442457778500165,0.8728714978714979,0.14429720315484948,0.9409864644583686,0.458207696247094,0.7542093609431976,0.19550882776302383,0.8996936091145769,0.21818789882779355,0.7361330774691944,0.12099611770832759,0.9272825521040431,0.7469588466907428,0.8802757310073328,0.3972402625504105,0.9474349511114217,0.35770554484156647,0.6117675976340633,0.05163640812135799,0.8430852700606696,0.5535444604158157,0.9859725641770227,0.959584081802116,0.6400229186974234,0.05566661671887191,0.6603908458326373,0.1001456790991995,0.7426316101657425,0.174829786901286,0.9788737024372341,0.5393435740667669,0.8512036678135865,0.38642578754045787
3,3.930763433599812,0.5418498919281508,0.8726839014008401,0.29871329084371745,0.712020594436453,0.017241705039771852,0.9684351575067242,0.8031774567297879,0.9337134969588626,0.6311541020039549,0.9693481485558101,0.6529438392716214,0.4686806812604386,0.007347775577139798,0.9160319608787825,0.398258718693812,0.7734400572149489,0.03556530199220486,0.8222864716807337,0.07940422939937371,0.9278971596726364,0.47870128769135206,0.9576425206146051,0.5943798353957727,0.7746353057754279,0.19794087927238388,0.9027454899911684,0.25403841135983574,0.7073596092899305,0.10476037734287148,0.9580840432101757,0.8287644683077586,0.8481970342002187,0.3573556631259244,0.9016834576209634,0.20603108778066523,0.827438057858503,0.05226983091772315,0.5857900846005244,0.04418544646980201,0.965997258474943,0.7283791127688011,0.866994753383847,0.5501822632334813,0.9734152408352463,0.9181325577195114,0.5499400180910953,0.04663838226081096,0.6137641463697624,0.08551310725283419,0.6080555266363074,0.10305060115122239,0.9862308703313792,0.6638220111678111,0.803171208782926,0.04514014411174427,0.8220623057641946,0.3401145143289515,0.5287322054110457,0.8764672891302357,0.3017357620453667,0.9685094384100876,0.7988681262727086,0.9617674623048341,0.6323524758022109,0.8910418076903571,0.3686960489425063,0.8507970235911413,0.10882705537980929,0.9214835132573376,0.4545430777516485,0.7570913941018917,0.18378634190920895,0.8982969245702008,0.22825280066085019,0.6878216274211719,0.1055254258855518,0.9510908585736245,0.8096312239168719,0.8288492111804483,0.33215467871480187,0.8998317362287952,0.1978006506351499,0.5501908613733401,0.038404363954197725,0.8397111750102918,0.5242983295228553,0.9670539155035943,0.9047976368782605,0.5394961251198854,0.04599972020819806,0.6078427924414225,0.07774766983718716,0.607456300880142,0.11303354253078424,0.9794208038062959,0.6587952009031685,0.8202221189786894,0.3623815858816493
4,3.8317885931072873,0.5347941666045564,0.8671717410686052,0.35302034381236486,0.7326555290637922,0.015914207247805442,0.9720284819414412,0.8367385767569889,0.8849235627901589,0.4019144835987212,0.9657691711255663,0.658258512241766,0.431628942807474,0.006087335158423429,0.8891209668290271,0.3160365085595852,0.7886035742286246,0.034619839166146305,0.8428937528694996,0.07458450058999641,0.9382919588137504,0.48806202372824214,0.9676805555055662,0.6816541646787647,0.7860722673427532,0.20330263998572107,0.9283974042668286,0.3221438950159109,0.7725438653868963,0.12183884392688557,0.9571043770984857,0.8089885173744402,0.8809650586994524,0.44486269849856286,0.9379482911289744,0.23799836794850765,0.8394935068471755,0.10603281328551055,0.6578596927540282,0.05074831462374467,0.9482230289973411,0.5293952576777566,0.8721905123452655,0.5580236956697198,0.9722787683474542,0.9038187463151157,0.6059092981611064,0.059359113491904314,0.6533007554198764,0.09223032866832911,0.6740479963388193,0.1171603217167941,0.9885545026963444,0.7243178915493853,0.8272522456275486,0.04907818675635785,0.8364040669815503,0.3405996343719796,0.5182976820451666,0.8584266319463472,0.33872076595868966,0.9706892365153746,0.8332360454914495,0.957723793874258,0.6338999088516722,0.8620359447797165,0.27843231615779296,0.8539424605601077,0.08280145566580122,0.9285048483018361,0.47861293357816814,0.7717394109746837,0.1910200507958218,0.9250895633856265,0.28501874607333855,0.750932571747717,0.1055011914152413,0.9478567750914573,0.7788227809643091,0.8577352660036468,0.3962158362575906,0.9278038138332256,0.22909161823743973,0.633977437424106,0.04602614240811786,0.8389364320970712,0.5241193091972343,0.9656734031096831,0.8882598156757971,0.593071765314629,0.053069018427575984,0.6394428666354315,0.08118822074067991,0.6690545381758899,0.12516295485425755,0.9835577757159446,0.7091813243309478,0.8387470808150923,0.371493707109575
5,3.7696089178123096,0.5673150977615463,0.8556475389993428,0.37997079912104664,0.7559518833984451,0.022357449169276823,0.9807639348258305,0.8935193951922442,0.8716886465982158,0.4308710525329268,0.9700101427859437,0.6481510072532229,0.4653172487464994,0.010433942025349202,0.9233167143336087,0.46022268443837333,0.7739970477220866,0.03581635889199755,0.8241822385116973,0.0929413021127814,0.9489251238230033,0.5716324672074011,0.9701267739717893,0.7215377281955153,0.7981451026184339,0.27309210059460254,0.9272365853351158,0.372750509332252,0.7865248878824157,0.18415086873458691,0.9654157245119012,0.8450250260101343,0.9224375973640859,0.5202618350327213,0.9378510440198916,0.3024258607974863,0.8714892288676295,0.12546833159206608,0.6266012713000443,0.05222150053150069,0.9511549250641345,0.5901831353833777,0.8917032463974247,0.5905341192959447,0.9843618788451383,0.9499659101127127,0.6253526936243597,0.07368257760922174,0.6792033500182704,0.1329694130313792,0.6764603071014572,0.1311528353888567,0.986908497131437,0.7725899432480149,0.8218174929920365,0.05993361669385733,0.8441700417329718,0.3794022877603278,0.5492285905940225,0.8402105567364043,0.3501434486632203,0.9786909275156368,0.8785893197671821,0.9592231738299153,0.6146300597637745,0.8806907606790304,0.38711738645501015,0.8457105295340589,0.10643669810987813,0.9418271932694163,0.5473638997461278,0.7806216782906815,0.2332042017885267,0.9215171501966841,0.3040797257177531,0.7561398766561036,0.15662611078854355,0.9559815615877931,0.8076559008247665,0.9016674055508959,0.48473696016371837,0.9246652923123512,0.28612519207730647,0.5923165811430138,0.04474911156757661,0.8561010029814996,0.5348697786483079,0.9800226624587459,0.9382098411913313,0.6158994870079472,0.06432067398035848,0.6665374970743192,0.13860037404532083,0.6666511932116763,0.1262525662815617,0.9844738602278437,0.7674266341259451,0.8446814942244218,0.409007257037169
6,3.716768824433111,0.6313880400486944,0.9028308408085587,0.478297226767735,0.7582722576617257,0.024124200074222193,0.9834662227473318,0.909130095221451,0.9123546722652432,0.531553962827875,0.9748218326039134,0.6905736932373844,0.5640000559930498,0.01415574521271587,0.924228758491797,0.47172324052596865,0.827808102416104,0.05063894565768376,0.886948500927026,0.1472543183005625,0.9525112093532865,0.5897843777158203,0.9691301914431844,0.7102348798960857,0.8021663531999498,0.30227323959683167,0.9517926030911095,0.4684324951308093,0.849725343658304,0.2392043880449621,0.9669772267580443,0.8511925199511572,0.9285105146941426,0.6205592174282668,0.9481469867261495,0.37610243610687144,0.8436972721803718,0.11868519810508388,0.7094149327235109,0.0891766012481649,0.962448261791981,0.6743258149035332,0.9214659605521802,0.7257465549745915,0.9918058511335297,0.9746567584601544,0.6882889758307378,0.10094995660513795,0.7364134791247315,0.16894231589551084,0.774394219200198,0.2030822654191296,0.9914350338679659,0.7726463570190855,0.8542948727965397,0.08243565617046324,0.873235204890395,0.4216993503887874,0.6037117090258627,0.8860955345550552,0.42961050412345336,0.9813073163774904,0.8965224971550411,0.9629834096859011,0.651769111124226,0.8823067543641089,0.38854019374070403,0.880065019770902,0.1406332965529277,0.9478522707891212,0.5712156483046716,0.7736465212210668,0.25611902217591465,0.9434224053304063,0.3811725898235945,0.8246432024425951,0.21118541205410768,0.9580896265686317,0.8149682286448046,0.8964703399802151,0.5360651908034311,0.939698748522278,0.3401201005412405,0.6635949312546516,0.07756651571944279,0.8837935009959125,0.6473737718017897,0.9880040392462417,0.9636711707342589,0.6655635791322254,0.09418417271828623,0.7091906781843236,0.17085585660888764,0.7613227502836304,0.2045124107751634,0.9886426988634648,0.7342358375355637,0.8703522803983276,0.44791165952302686
7,3.667135768746895,0.6094258527738441,0.9211892692137089,0.4816982107049238,0.7563216561004977,0.01911312181131463,0.9903363584859394,0.9410921993401039,0.9147479990172875,0.5232545824315167,0.9694443108589016,0.6430817178125102,0.5697267451677561,0.02926629930141111,0.929717145007328,0.5037887650241422,0.8525741501870789,0.09391826130148946,0.8782482457112861,0.15912277714225495,0.9593903485780019,0.6185139149615005,0.975224997030633,0.7334807031875031,0.806235531080957,0.2594828618175153,0.9422461777984157,0.4113869467772153,0.8217667115647964,0.2149906744908148,0.9691274190652672,0.8594886067436357,0.944809235377291,0.6149376114918547,0.965375850579817,0.41338624039153427,0.8747102044711278,0.13856099402431052,0.7003001925107809,0.07952072387782552,0.9585809045503028,0.6511859982472102,0.9229448272189613,0.7202128018307081,0.9894492720578751,0.9700644308441563,0.6923197876870241,0.10146681039023023,0.714962498609856,0.17404722779228632,0.7395841430690114,0.17106959567884028,0.9923350841207145,0.7795048056975505,0.8749993872149132,0.1151173691543372,0.8750617945309456,0.4229908982321739,0.5870910039502124,0.899337911754018,0.4215612886705711,0.9890009135963308,0.9228195732472294,0.9581743935920781,0.5997288275510784,0.8961810600865655,0.43851485717586225,0.8847391347391347,0.16757440703156598,0.9484666965841002,0.5649065296036981,0.7818361822783692,0.22013274709198752,0.9334389358621992,0.3402043040167691,0.7941685150358523,0.18776900028675408,0.9586531636404685,0.8184717673150274,0.9091429735659285,0.5254354478093711,0.9588538117949883,0.38261918594926664,0.6492297974852129,0.06385116526105065,0.8840576049034651,0.6299500413150372,0.9858323214452859,0.9613060899558266,0.6778585325761713,0.10289872418198018,0.6938905713734224,0.17327788155262538,0.7305351375381852,0.1708156660339985,0.9880476296858344,0.7360460702488634,0.8695497519756639,0.4435728196999243
8,3.6191601341625037,0.5918610717746143,0.9186886487326457,0.44353730797394664,0.7459240998878911,0.019342632019910183,0.9898288007572341,0.9455302865346952,0.8920590066504943,0.44563266643859867,0.9701954916550898,0.6381217103438298,0.51086028946657,0.026045637808490816,0.9305005422007142,0.4663581088269449,0.8443944256745598,0.06888453716923226,0.8548394781496285,0.12943093329178143,0.9614798532196323,0.6004300852055635,0.9708670011553536,0.6733857436085032,0.7974927384808939,0.25898585832755633,0.9381667101292341,0.34417991541529586,0.7962791928040986,0.18086922299016014,0.9704729580005135,0.8697171151819639,0.9435982913687766,0.6044012986703324,0.9614366019125011,0.45964252736616196,0.8838499745342285,0.14068640241794508,0.6281188895864996,0.0558170439354177,0.9514836988290865,0.6521949947347846,0.9396324505757078,0.7327489151180999,0.9898307333076899,0.9712668894016937,0.678033641347713,0.08991757940518134,0.6974171486233604,0.15935384472293523,0.7464743132277746,0.1666415511242149,0.9889896104311181,0.702131917294081,0.8385534196931356,0.07202250009165026,0.8644247411260054,0.4043436009414434,0.575762092867258,0.8992509680901446,0.38131847531706287,0.9871109395603597,0.9247861072508464,0.9584131875289666,0.5907246413793255,0.892802665320189,0.3559806123367435,0.8672783562489444,0.1462134347796506,0.9536199395500081,0.5568784748386154,0.7702537184161167,0.21885621329825541,0.9296453058037958,0.27035162726458517,0.754047561079256,0.13033048359874524,0.9601005196716135,0.8240570219933236,0.9175531206884865,0.5137165460186901,0.9462909904086374,0.3809203028915102,0.6038734380508441,0.050568809213270886,0.9002739278867946,0.6299606260945361,0.9858106141705217,0.9617575237906344,0.6714244088047521,0.07710592925453796,0.6776086081798476,0.15618348215567104,0.7324954060700777,0.1746533932332236,0.986995692289527,0.6745440904433395,0.8628868088325727,0.4220477786922404
9,3.5909089421471325,0.5657002310501602,0.8896941789689945,0.41182001370429794,0.7891934692675379,0.02940187320044364,0.9894050149530484,0.9399056219505756,0.8794873492049665,0.46752075911702673,0.9691559911101465,0.667950519375439,0.7296872088252045,0.04397603024038699,0.9365279219983392,0.5160548371771626,0.868083639145586,0.07300705232889326,0.8931620760528848,0.12412675906918982,0.9502752619809415,0.5801100107407411,0.965835071462764,0.7346516870859103,0.8317374280108935,0.2878209342886313,0.943967877123405,0.3671011385679182,0.845072325929452,0.1934415969949841,0.9569340211316641,0.7962106341518839,0.950060634697111,0.580107034797494,0.9505098445603728,0.38055350333807053,0.9148664515523542,0.19397546406659186,0.6902751347328971,0.06502274902876339,0.9503261055506051,0.6421306081735821,0.8998338638353378,0.5526401139011393,0.9853655182959686,0.9578516747336246,0.69143414216218,0.12209882596763572,0.7546053965027588,0.1840581705460911,0.7692509999237255,0.17560601782678026,0.9927720093767636,0.7972965268196598,0.8527278281333922,0.08498769440355718,0.8829721023884923,0.4062751056146843,0.5422970857866886,0.8587190718580198,0.36188494260570153,0.9867999115524483,0.9188422597944494,0.9506634873024713,0.6020490974061979,0.8908241810336275,0.39628394547724693,0.8893699371640548,0.12924303953533228,0.9406243796326587,0.5579728620919076,0.7957463792117689,0.22981872545989027,0.9319156313459518,0.3037627447150584,0.8071010286326286,0.1413966350131262,0.9457796756194051,0.7575404078396509,0.9168542273110778,0.49150774970176636,0.9330777529306942,0.3473847910200936,0.6420766579184456,0.05255119596782898,0.8626581712636652,0.48254617633442104,0.9808345368970961,0.9473900563583605,0.6597667754673245,0.10291709626499815,0.7331555105590385,0.1647393253318769,0.7591655919558665,0.18435387764386682,0.9891418324239576,0.7513494378513627,0.8670670915831685,0.4170281245480598
10,3.537405820477039,0.6062209634543241,0.9201729674332924,0.5073697817562286,0.7474895798871859,0.026419756840575508,0.9876365038357301,0.9367735675321347,0.8804734978698134,0.4761861545666025,0.9778728463938847,0.694679995473963,0.6923868262351935,0.06692964784128605,0.9339265016702522,0.5063709860553737,0.8563667186100054,0.097755776971487,0.8691497151187849,0.15937306072433394,0.9668689105800603,0.6684967254282856,0.9649495477564184,0.5697206769604858,0.808743774173229,0.31218952883353374,0.947142425056154,0.4281914394860655,0.7957866824369835,0.23228017088060907,0.9743937261474108,0.8845257593899156,0.9416928158686984,0.583890115573052,0.9661507884803203,0.47603238495073597,0.9192125123699733,0.14670970893729807,0.6635670340710863,0.0772352397937503,0.9602187166588638,0.7322930164295786,0.9279261293852304,0.6808600685631593,0.987676880756724,0.9651081909305154,0.6655845960942355,0.09549639072288504,0.7248832038353049,0.22489057525273592,0.6981403963156566,0.15953512614113638,0.9915784122916015,0.7826980191088005,0.8619990750009116,0.09895863775147823,0.8752589179382596,0.42929520381096314,0.5721100096892002,0.8993213802122956,0.404628182989789,0.9844706893472409,0.9149726012772361,0.9640732984650914,0.6355853672338349,0.8929234955206834,0.38217239503703654,0.8558471205530028,0.15435148108131028,0.9550394448778278,0.5965686129330542,0.7694452491783452,0.24690072777575756,0.9275201883398466,0.3208761807021439,0.7536122278008784,0.15533709923729788,0.9607945165432527,0.8299397533998041,0.9045051291816913,0.4604876332647739,0.952221533103886,0.3937286927898182,0.6264279838614908,0.061242968073325806,0.8853553057804502,0.5719314474146143,0.9836666414293642,0.9573676675649208,0.636782908714593,0.076209287481494,0.7079904686658016,0.19115257287215595,0.6830849942996189,0.16632366760146372,0.986321124016576,0.7283074904935348,0.8594422999943125,0.43410967522228244
11,3.4994522462480306,0.6125065215771037,0.8992467379666493,0.44959918558537654,0.7755054493638001,0.028077828933765706,0.9884481339993914,0.9453558703314837,0.8721759624564771,0.46003890768585465,0.9708997453502373,0.6789332646506213,0.8019662309415845,0.09516880057965645,0.946811419442064,0.566645071955218,0.8763282878265563,0.10450137274808013,0.8996560913588001,0.21000000194354435,0.9407991184746771,0.6008235607875541,0.96330166158575,0.7097898922986924,0.8183290695917333,0.2732303962221923,0.9604398185623617,0.5220832403157412,0.8431337513762266,0.28052274330587934,0.9784975619387978,0.9008180797533363,0.9552637641693041,0.6334383880638209,0.9634208418028855,0.5014896849341823,0.9279676513806769,0.1961751600687559,0.6641894240106737,0.0789298367714351,0.9418486964284539,0.6180916375518483,0.9385015279488381,0.7147871476652522,0.9902989177152061,0.9722760382706008,0.7250348676445174,0.16264307816263449,0.7817119761323716,0.20888902276712695,0.7066474101759451,0.1849579117666516,0.9930426485825357,0.813512364390749,0.8623711121467179,0.1000649043059722,0.8883643658656752,0.44484605154874174,0.5839606469404487,0.869886357896245,0.3895977037154761,0.9841635644141883,0.9185508794450246,0.9510614202602478,0.6061651883871528,0.8977346542337977,0.44359578691963414,0.8886820320643849,0.19986120422073916,0.9301279389684356,0.5639936051784331,0.776368459609642,0.20237100140507186,0.9444957304408031,0.4027831212321464,0.7935755831229355,0.19661842840487592,0.9648635427441549,0.8499326655491464,0.9161716615595509,0.5101776401796759,0.9474855430737784,0.40953810570367255,0.6234176818520114,0.06124780280691268,0.893832100397949,0.6069805472818472,0.9864000649141756,0.9630638828093285,0.6971524106445197,0.13480068773442688,0.7621602598967565,0.17224761707316336,0.6887310199724612,0.16687811490092763,0.9867575304427866,0.7423080493018,0.8685825029741486,0.4495111595920766
12,3.4660439908449696,0.650741596482075,0.8938054255518544,0.5001933728936716,0.8091534688941873,0.044849278686512284,0.9889566757716338,0.9400995907179958,0.906692974033859,0.5341073123074798,0.9738255944870976,0.7091730405768468,0.6020107629140533,0.030741882012443225,0.9532675460882664,0.5887491998338636,0.8903702263168826,0.14510875462671066,0.9053864842689913,0.16773417769261412,0.9599459078200242,0.6556009094547519,0.963439827128856,0.6856785345140903,0.8613155648428296,0.3715085204113105,0.9598988113876451,0.509811230534336,0.870744033894324,0.28661380496677996,0.9732525125675802,0.861459375553644,0.9590932260288821,0.6611801351549424,0.9701476066764699,0.5002868951502908,0.9159524322343778,0.22149873505170026,0.7536393236362722,0.12130178745277044,0.9565652022392402,0.6946808587971348,0.9414026553156989,0.7670355795837642,0.9852733109933256,0.9634488564580431,0.7288068426258563,0.1815592048803867,0.7634818448401949,0.2423149455174189,0.741187116520859,0.20330213904892974,0.9949331793447006,0.8451429274878525,0.9031002942287595,0.15785822841722275,0.8935425500241749,0.4663347880660558,0.603786241335619,0.864470441144191,0.40002387359688896,0.9864686207729283,0.917847329726519,0.9523613497721949,0.6272068190872826,0.9068258038625976,0.4424765708719659,0.8870900231194349,0.15254516814558267,0.9511204707941541,0.5847022533134828,0.8225878758509944,0.2981276227915527,0.945561877965585,0.36932052105854535,0.8210233862634698,0.16808132550781008,0.9586087738798612,0.8024548340032798,0.9097111571991875,0.5157408195752834,0.9540705055410938,0.43565463219701694,0.7061327314035019,0.08444869032713373,0.8965477809242234,0.6352903228071222,0.9793035590666287,0.9530832800712125,0.7086313591545431,0.15335925407981035,0.7327811908975843,0.20123335407044715,0.7173208069763858,0.17566828548266616,0.9906177649953072,0.7617378575165678,0.8784860778728351,0.4567896218015879
13,3.4231583776777508,0.5814513925119873,0.928426291397898,0.5024165683932991,0.7855860723615775,0.0424368770922313,0.9904251758700501,0.9457415417960747,0.8933466056687688,0.5243284284409546,0.9696306305449073,0.6872730546141067,0.727303348471871,0.07172976621334971,0.9266588344230483,0.5235310086382059,0.8789764851989113,0.1262153912985881,0.8849249145580006,0.12637441463792387,0.9509678862323341,0.6427151654963799,0.9650842040476972,0.7029032370455747,0.8359895499067876,0.30355358398265,0.9515098508151414,0.4092840743886335,0.8101966476453211,0.1917916166109383,0.9762293874469802,0.8916236918768963,0.9599933899035987,0.6489781685968542,0.9789414234317668,0.5650170774807767,0.917000264898039,0.2106289680692534,0.6881926498321366,0.07823129429296088,0.95228963318984,0.6707520055885693,0.9319824227193423,0.7319191433339276,0.9911480722550794,0.9767988063013896,0.6801706979412188,0.144656501068072,0.7488332299050177,0.1665815379909377,0.7052589722794935,0.1602606854779775,0.9933695280692841,0.8171012541032664,0.8958842136450693,0.12056703778474467,0.8858637178762658,0.44383003335609394,0.544011328911083,0.9026572310341122,0.42354058162610414,0.9868706098020216,0.9198339617355883,0.9467268605031185,0.6067628644331919,0.869615614437004,0.39239320678579503,0.8555927048574109,0.09660786705663642,0.9391718462970886,0.5721464619320068,0.785147768782006,0.21506868424306497,0.9364303326976569,0.2896724260811498,0.7505606613359508,0.12553332776867726,0.9582220569008115,0.8297733579550368,0.9136599580238034,0.5046604800241671,0.9544672338789986,0.4448343048449159,0.6299280230326295,0.05393383288350639,0.8776048618821288,0.5950198024276685,0.9872176097591052,0.9676609324829952,0.6458664352148269,0.0964345500598002,0.7154724655230239,0.1284241342458986,0.6894149268452741,0.13712433059100226,0.9873173785022371,0.7603730070298508,0.8595760304899583,0.42946305864247664
14,3.388639698561424,0.6389406474373307,0.9205159083866137,0.5497028059562531,0.8173663015781323,0.06343399155951443,0.9907241760078641,0.9485655041896311,0.8325368164321956,0.446280707776907,0.9648544494786906,0.6811441468353632,0.7461078706105605,0.0903049664121473,0.9207974934955448,0.5759284148160062,0.9023798761744158,0.17039917232713742,0.9063708005460877,0.1868265254274763,0.939178509658565,0.6280869989247168,0.9657657187487628,0.728397002898966,0.8604924812556666,0.3919667795187315,0.9623538906430104,0.5679005529590638,0.8736833675149647,0.32896850993883137,0.977798298376213,0.8937022329204337,0.9595002727468925,0.6574681307324424,0.9294373267073609,0.36673941410180977,0.9212636154103591,0.23194412956745242,0.7317100475165242,0.126161784541064,0.9327019957222094,0.6093974980465496,0.9337606379537109,0.7445874769057301,0.9864976525795531,0.9661652599886605,0.7232598076166452,0.1980425607295966,0.7657486581199092,0.23549051162852794,0.7203369639398706,0.17137435677367582,0.9943360378735769,0.8696115668734562,0.9215074390577572,0.20451307557593662,0.8926291264500613,0.46789274362689187,0.5902958932697324,0.876062419427868,0.4155500764885402,0.9877346010963378,0.9147631337620479,0.9401079298490144,0.5924462498180392,0.8676192702120482,0.4210357556355576,0.8927563229033817,0.15596502531641707,0.9274774850342933,0.5745546168234977,0.809000673856842,0.259727377900901,0.9459203891650113,0.40959206367407625,0.812529994063492,0.18752090639986752,0.9575717988103333,0.8079021611856191,0.9034274171364112,0.47488780603732983,0.8867791919262509,0.31891479718119775,0.6902806612088214,0.07906252880346915,0.8838665311061489,0.596879232034118,0.9797317626147378,0.9524150250965846,0.6922212647357817,0.14660014762946644,0.7256738277283779,0.18650155834784313,0.6902028827840159,0.1396010121234308,0.9863026748594342,0.7785357397293423,0.8660666893957158,0.442760800736176
15,3.3490727016850053,0.6076370773396934,0.8966254549070892,0.4387055495682152,0.767002595824073,0.04665063281216184,0.9872793884721673,0.9334946393186376,0.8910530043610677,0.5313351513221034,0.9713151520980703,0.6620444153789408,0.6309379098319421,0.05667323677750765,0.9453889594979465,0.5920404688042907,0.8687072354832621,0.09792316431680345,0.8690030052068739,0.1300973049131808,0.9522810014196368,0.5989273372725907,0.9638515118576719,0.6816812553462187,0.8309271207922876,0.2595227101116078,0.9178943210096757,0.2965326427853711,0.828158922373119,0.20228193897918842,0.9674101515437974,0.8487408738280086,0.9444258380523549,0.5822680344964865,0.9594430171827285,0.42422820333372574,0.8884434910815784,0.1419522543374895,0.7033921000409182,0.09372287497657684,0.954445471074438,0.6461333514632436,0.8884554690376356,0.5314696199592263,0.9791566708249368,0.951557946112756,0.6764663531367091,0.11970691849450195,0.7060063968286905,0.2171320672231561,0.6933032527101325,0.14960022762126193,0.9933561538561252,0.8472656363116005,0.9017278471297299,0.1791591668676325,0.8732021405790616,0.4170684304715735,0.557874338525751,0.8641413410080504,0.3276651486410939,0.9834530110201797,0.9042105328376315,0.9510018071815826,0.5911934183609127,0.8965331875139185,0.4444415661141761,0.8455707646884117,0.10624018821139417,0.9391498276252549,0.5533313596828083,0.7874741926669488,0.18899515454481555,0.8891149521623122,0.20004840202998098,0.7426921521151925,0.11051574400056516,0.9486263559549979,0.7815466202120167,0.8870919823903005,0.44554904994784544,0.9303537943243825,0.3375334957708366,0.6476219201692193,0.06773212044269944,0.8390762548704067,0.4517999424543961,0.9727396561401558,0.9381218586669371,0.6558675589365933,0.08559744583544414,0.6717233317129563,0.15736893218684722,0.6674361734859968,0.1291336934151565,0.9881589955071272,0.7526025266404909,0.8477803820775783,0.3986119578945289
16,3.3131409610701756,0.6545675883828973,0.8973302218016209,0.4643266896515033,0.769697409672478,0.04039873698638635,0.9839199860960015,0.9342624895734875,0.8010314595701744,0.2707951358368465,0.9686387064553277,0.6727887337380463,0.6211941130307201,0.0547052106913106,0.9299869069247109,0.5205580437022028,0.842544417200184,0.09151738869671225,0.8833348482907288,0.16560107796848716,0.9584948103436367,0.6202531179845752,0.9580417654955962,0.6754772153244034,0.8396471621181096,0.35199731963321723,0.9405171108411801,0.4114254053991023,0.854500094566515,0.3484984788958497,0.9776915385768459,0.8959902726269631,0.9499806131622042,0.628373001263358,0.9592723788960098,0.4523338929075026,0.9132658102155216,0.23521748505379117,0.704310238658909,0.12922581266289662,0.9245442888707931,0.48602824289695556,0.9313096156279649,0.693911797213397,0.9827907994368692,0.954475047181914,0.6622839364311269,0.17357084158705435,0.7411786880218456,0.23522108131403163,0.6869507431168769,0.18147067006779205,0.990295516613962,0.8246521475461609,0.8996739830142103,0.1650417468347732,0.8730528578907454,0.43252285493476744,0.5971528657673101,0.8557836517134789,0.3455197756133092,0.975093510476462,0.8985780697420888,0.9494387716175697,0.5862790005956995,0.8852209009787687,0.3890645307409163,0.8650257400257402,0.13781191299271386,0.943901666708607,0.5737175968909212,0.7935062681030061,0.23107776329420174,0.9222715328488647,0.27208906704923574,0.7867248751192573,0.17180549531250475,0.9545290505031966,0.8106844217199805,0.8983129658032074,0.44218941282722,0.9260076171840879,0.356022169564132,0.6458449214618669,0.08014268215202194,0.8773001625894554,0.5364220562651906,0.9776971887881207,0.9390927890976524,0.6303402916972641,0.1138144510115642,0.7081280122997924,0.18382183310434647,0.6606118838911612,0.13301026403852564,0.9848599507709399,0.7247846087589158,0.8547683664516236,0.41715410004058634
17,3.270745748274223,0.6398350351544061,0.9363549122199517,0.5986468834533064,0.7939507343081241,0.05864186518402143,0.9894792416552571,0.9549812341258693,0.8347886882069153,0.3863617409305715,0.9695309643001708,0.6369622448158494,0.7490726588562195,0.1209547819828246,0.9468565164191342,0.6003987033148258,0.8822469275733363,0.16186882229385485,0.8913142939664865,0.2351057091044549,0.9485510298318881,0.623321822782261,0.9763200410672445,0.7893104751222336,0.8166988516549005,0.3350234775930684,0.9634398893304083,0.6237734108518767,0.8786663246748319,0.39112122521514203,0.9842818465225165,0.9256133343683582,0.9650260879712107,0.7087392294803806,0.9350100419036272,0.43588540947659327,0.9302316631253151,0.3271795403225673,0.7208739845704796,0.16834676484672953,0.9373383657999758,0.5397885378706633,0.9325833930255448,0.7242033880209279,0.9850977187081628,0.9659326837000871,0.689265766279228,0.21974448742261268,0.7971266265887962,0.33497555074895086,0.6389123049107583,0.1814855917694434,0.9927004401899358,0.8402056901308989,0.912660737358167,0.21082577377262043,0.888828890778466,0.4851629029148516,0.5864202131624059,0.8904946084213511,0.4455220439468587,0.9837471257037023,0.9207390944479388,0.9429535291284191,0.5541547021921173,0.8838074301753581,0.3989141311461043,0.8766000163058986,0.20369006165509904,0.9348843215872458,0.4994744921519289,0.7508679436967641,0.20320346373339312,0.939989126877997,0.4052460265642734,0.7943878591060218,0.1691820354111638,0.9611667712221762,0.8248865866432338,0.9098613891047173,0.49244672894844554,0.8854863671040142,0.3517323400505231,0.6605043284108268,0.08637729732053576,0.8687457117550929,0.5450059212410938,0.9777789384807208,0.9524257444210318,0.6483742294012653,0.1248266976004167,0.7446398806196624,0.23013574581549157,0.6077653732246938,0.12739318918037232,0.9881217617536225,0.7280450372443409,0.8552724585305027,0.4349158599849665
18,3.2366718346398944,0.6321085190430051,0.9013493355306674,0.4736272168870544,0.801184973466177,0.05752153382655604,0.9913825458635258,0.9610464004253304,0.8778372704961696,0.5432519234171732,0.9637901384552002,0.6718956110947865,0.6703950309667813,0.07475540778276485,0.9436693418257773,0.5805497005861058,0.8658925235345607,0.1236678341232707,0.8844293916964148,0.20826859830398417,0.9518736316431057,0.6395352270944912,0.9619975021325453,0.7034535286321822,0.8293401981907644,0.30691468277748063,0.932825409412538,0.39487518341954697,0.8703340571406416,0.35189751618970655,0.9729035926243303,0.8723356379092357,0.9529956578986019,0.5940308790014703,0.9460418337309954,0.45082456323954845,0.92059709413378,0.23414763518317439,0.7371417975078509,0.13329759573297817,0.9430034650500534,0.6524596869335595,0.9117800704167691,0.603914188695848,0.9806867650578498,0.9569613936723751,0.7423974194449857,0.2015111037271307,0.7877524826406525,0.27146749637599066,0.7199851859139773,0.19219452741431664,0.9915168223253614,0.8414608413758128,0.8955899619062152,0.19681975464625714,0.8869886481113441,0.45528465438770854,0.572557203547738,0.8587600180377487,0.352733168402346,0.9841651976157251,0.9237600721236159,0.9350052325137814,0.5765480426451939,0.8871939831851987,0.40748695762578174,0.8590577083224142,0.11168927094357675,0.929628324819447,0.5527206386650054,0.7784981782673969,0.2022638112237591,0.8985674643356814,0.23655690951511119,0.7725854099928877,0.1458665208699539,0.9472252722466419,0.7788227139094738,0.8831740620755039,0.4047334867161691,0.8813964255140726,0.33089192444217436,0.680436268557327,0.06986049838024802,0.8570738887987923,0.47309282419643717,0.9747079740611643,0.9426313484625318,0.7054249954920464,0.15319473204157508,0.7442691199259065,0.19749438053438634,0.6801220756409927,0.13761407550222088,0.9769707557378555,0.7131563569200816,0.8544348607968728,0.405848301743139
19,3.189753079923179,0.6513130108568731,0.9291051442419375,0.5214405504479053,0.7858925310166234,0.09852702903892907,0.9807511929529983,0.9190637648549723,0.7902195037208093,0.32326419322921,0.9696505097881485,0.6781039556548657,0.6720006316715939,0.07717999304560579,0.928407716898252,0.5740773538063293,0.883771324226012,0.21363876013257066,0.8929694980767762,0.1958584020572439,0.935034015464165,0.5602894656308596,0.9679330866659228,0.7375344679533268,0.8410122332667774,0.3544949967086115,0.9484679008743248,0.5048339013033653,0.8521321189970887,0.2748058466248486,0.9805536822638282,0.9115460980747926,0.9494580505892279,0.6626858156193131,0.9580725926877012,0.48774367743526564,0.8981357884902813,0.2467105906961181,0.7183616527628545,0.15104787456608462,0.917236287697735,0.461790728834781,0.9164369389719427,0.6526557918479935,0.9730883683584781,0.9420471536248148,0.700026263343102,0.18521949147867614,0.7474561930131244,0.27783297288134656,0.6897480416161182,0.17004911474740247,0.9925972872843399,0.8362471580388199,0.9054313286988399,0.23993524568600552,0.8786648105051482,0.45402312570444664,0.5695013788477304,0.8875588821371487,0.3896489698513612,0.9751960976780747,0.8852125895315128,0.9435829111451974,0.5923367542781836,0.8670927327690181,0.3891622546304505,0.8588688073982192,0.11961047891967026,0.9139187014715462,0.48477875202009185,0.7766188882278539,0.20677403176899675,0.9166032646604027,0.30143953567586035,0.750945432051904,0.11879830435384003,0.9538414050796666,0.8035956456533144,0.8695726172935823,0.4386983917897791,0.8972215185450481,0.34967595639076615,0.6500444592424302,0.07956657327757968,0.845787540075598,0.4859423972079434,0.9655491653001788,0.9260058781704382,0.6663160480534787,0.11715982165334243,0.6912578773562982,0.18445848776898985,0.6527583615674292,0.1212565979129473,0.9813744018280095,0.7067752953604083,0.8454794269411097,0.4053103534850251
20,3.150688446855513,0.6687038831333383,0.9053027607820876,0.5102302132167391,0.8079383681050692,0.11501517878875239,0.988405101477313,0.948660813585944,0.8351398271647159,0.4184727918323642,0.9648238976792461,0.696698740479059,0.708760943797851,0.09587169191882339,0.9496150526860507,0.6507559543807101,0.8969725517912884,0.1994666702671186,0.9151409860886972,0.3084540545460511,0.9469234438349632,0.6645726612244123,0.961562174944302,0.7319004033398773,0.8506741497560182,0.39853256403593396,0.955372196300867,0.5478498839552554,0.8761177775726138,0.3825878327544909,0.9867043168809639,0.9384073515660374,0.973888419857204,0.7722721061451456,0.9785592916763692,0.5854839364244191,0.9131272845205244,0.29979284563075725,0.7507467896017916,0.18634581749956575,0.9252120975100238,0.5750454000126082,0.9272582637210491,0.6910610582847749,0.9754415790089622,0.9490907013903378,0.7784390914740198,0.2917459159750597,0.8196454543134903,0.33133358838231397,0.7645202616206965,0.23284403985458413,0.9935900997078455,0.865360755607466,0.9202372504700828,0.27200470093369694,0.898893312309041,0.5059206545197148,0.580830289930685,0.8472275839182386,0.35757922578619133,0.9796632637390172,0.9079285103212819,0.9286974058346799,0.6014100492278673,0.8840111657688923,0.4501309839182806,0.8677147574206397,0.1483667434847096,0.9230211505070585,0.5429532854116498,0.7871425009907734,0.21839333846567008,0.9303334338195318,0.32848271537035323,0.7677818866849043,0.14730063209272334,0.9577628524807384,0.8236381360288112,0.9071939519634146,0.509039738566048,0.9359138145902852,0.4428167212111402,0.6687770770496297,0.08133295266641463,0.85760854197594,0.48251258889698945,0.9677723160847551,0.9332703349255208,0.7328150602236467,0.16046182596087755,0.7575920108293106,0.20808988242581566,0.725443428552611,0.15829534612599497,0.9860487473693179,0.746411589320134,0.8638168920949149,0.43412708422139334
21,3.1048208207231864,0.6846786415244341,0.9188788109429165,0.5412761130596531,0.7938921908527018,0.1056243762092131,0.9836163788452634,0.9396164643665248,0.8297340695095368,0.45659587259427253,0.9666316358225506,0.7065260737274385,0.6993128602912164,0.10244966676462007,0.9496580998005265,0.6711440537641622,0.8866192189712624,0.17181136658633497,0.8952892599478388,0.2505833370824368,0.9393486064959798,0.6242593759956788,0.9454372302825038,0.5967873315854714,0.8171404322402533,0.32220272324775207,0.9476378013822068,0.48291564653655283,0.8602750974830797,0.4049443171757852,0.9831696353719784,0.9181620660997849,0.9712568230218608,0.7178284279971902,0.9601198342696533,0.44194077589711867,0.9203924001945437,0.2668603120635639,0.7501824413194123,0.16963360149225307,0.9152227147433989,0.6089809632715896,0.9507633044921182,0.7836176567054818,0.9881272372446511,0.9714845291441845,0.6649721003688084,0.18237542096884443,0.7670472331200415,0.33087243864046695,0.7532795840356863,0.23552733766881093,0.9918200054498203,0.8542611577142218,0.9372874593225599,0.25987889646925955,0.8884115728082358,0.48585778899365434,0.5835879853916673,0.8798737051440343,0.3743245472479422,0.9745304158042533,0.8999756326203275,0.9337703820361367,0.5990746011546253,0.8867563044480066,0.4402027393872491,0.8400849944967592,0.11885998205880166,0.9127536341293606,0.5185871049327322,0.7469990179233202,0.18230141155150048,0.9168664427996117,0.28435722972470245,0.7399419640831674,0.13199167490773525,0.9540871234295034,0.796122249602398,0.898494699378237,0.48298448275678424,0.8878656452185864,0.3424111059573928,0.6696306161620118,0.09909917346121115,0.8797746618264077,0.5463489658562753,0.9819318164756139,0.9567177365418276,0.6216543144382567,0.10467685148212304,0.7004701605680614,0.20625952761383448,0.7016361790008949,0.1558059030899617,0.9824816866957424,0.7333654974510775,0.8478738823188403,0.4196561272315001
22,3.0638477901254886,0.6488534446349159,0.9292995940006249,0.5364117624679134,0.7704275176019273,0.1338142568495796,0.9829421539608515,0.9459733472689229,0.8420969534218696,0.37728514717361605,0.9729041221269608,0.7316843665024816,0.7920069921321016,0.12121013855535663,0.9447996481181754,0.6076471624446883,0.8767816158778691,0.21623738631029485,0.8700104052811893,0.19073518568345602,0.9333579990499324,0.5546008628546153,0.9668574109999748,0.7186976373751841,0.8308333142324502,0.3519939146977916,0.9166621911532189,0.44858554501821424,0.8441120438267529,0.3032468282959584,0.9890448383760588,0.9495007130654838,0.9654861081158809,0.7420386333861537,0.9607931185514437,0.5531290344752999,0.9094406555247446,0.2947869137762939,0.7500755382393274,0.2423017784930294,0.9294545040012243,0.5743550115568293,0.9320443823759962,0.7253652139596733,0.9725384876295555,0.9449843587859963,0.6654733928525465,0.189128855949602,0.7829243742426424,0.3033445520313238,0.7218321544837796,0.2505521897247318,0.9916266280446826,0.8224346384020708,0.9336160723723698,0.2072775324171543,0.888053415429413,0.4828638136119153,0.5577998062159947,0.8848513829706139,0.3598835584104752,0.9720569735989374,0.9015817122950599,0.9413354923858098,0.6267474299319504,0.8763000822439138,0.3805785002522228,0.818417075770017,0.07862813441926653,0.9164601105547028,0.5044017999370092,0.7626715665142336,0.18808514280419933,0.8805070025629503,0.25098148202753817,0.7228205858164105,0.11224218515188474,0.9564187734590122,0.8203496177275724,0.8787152004162835,0.4800509650615864,0.8919235573647338,0.3925723118786824,0.6626119315288496,0.10078512490468956,0.8539589076982572,0.5089502727451687,0.9645800049644009,0.9290777099436118,0.6209521516658522,0.10115038514623695,0.7100892128526466,0.17310597132263122,0.664408534126209,0.14966955607417878,0.9821687219027724,0.6723794130616945,0.8400656457050846,0.40690638279450836
23,3.0287078351951506,0.6836848773943505,0.9401374108032629,0.6556202941291038,0.8203513436993449,0.20587837208381876,0.9887083031828359,0.9487527535662218,0.8403372728037548,0.4639726211150219,0.9784096116783996,0.746631684303122,0.8159969956229183,0.20857714053185086,0.9639189335775548,0.6964395074785273,0.9251842350905942,0.2918124296323448,0.9403128884907223,0.39822682683313587,0.9558908679144532,0.7009103447951445,0.9689740297368601,0.784614663235505,0.8743362230847332,0.4692180047890284,0.9756435772181177,0.6829509549979502,0.9071460672167634,0.5205219765073994,0.9884450313135963,0.946248544136447,0.974309091781575,0.766004640631908,0.9760312277181612,0.6099814955197369,0.9330929895645477,0.34073491857700927,0.8092769343352696,0.30759515411542426,0.9367967215467803,0.6149699493260095,0.9474826319999496,0.8004935237686794,0.9826858693450191,0.9676748880296979,0.6990298558227955,0.23789970203827523,0.7971954477419007,0.3579340291628985,0.7701936647151846,0.27646908834062134,0.9945810946100754,0.8851754065859199,0.9423569154482201,0.2605997121182395,0.9128453791134589,0.5609595787536682,0.5726317358574943,0.8825481412271241,0.4426840069379254,0.9811111107420262,0.906366982414101,0.9463825052979913,0.6256480503852498,0.9030052102511636,0.4395546007757211,0.8830885264708794,0.13976940017930065,0.9309714638013035,0.5517982182529138,0.7929499107228523,0.2386357727514341,0.9389964115752739,0.36401195348902055,0.7899319633994145,0.15524946064754208,0.9523632946682038,0.797272761655754,0.8817382958430929,0.4965249707947724,0.9023607883902001,0.4736672563629561,0.6982298562419209,0.11997470198367931,0.8540502862988236,0.5417550801972167,0.9746689680530891,0.9519452315972982,0.6555975717156619,0.11940537508263299,0.7151184529125545,0.20425722748662944,0.7077295462250621,0.15786199133016812,0.9804200772449437,0.7307053461953947,0.861645388477978,0.44510991518524784
24,2.9942850846479683,0.6581202951479467,0.9080501355170912,0.5305913315590671,0.8091588098825916,0.20545683031557388,0.9760265196274225,0.9169526373466219,0.769354770794939,0.3332563154333986,0.9621200055651594,0.713410094876735,0.7448020514453644,0.10156790950821688,0.93326973775312,0.6280524711734995,0.8950691505456334,0.20707534135626007,0.9118892059205707,0.3052272893351324,0.9492121738241158,0.680562970619763,0.9648195254771683,0.7185118251012924,0.8574532654445497,0.4033121984072706,0.9471923310703716,0.540033676826335,0.8664721685617219,0.41278657242167943,0.9858529426752372,0.9414000337707016,0.9682088330017833,0.7385444744359713,0.9567713048092875,0.45902058618408437,0.9195914043399616,0.35669211795914013,0.7478025375595984,0.23172456766292107,0.8879266864217373,0.46684054377573464,0.9377229296536592,0.6885220120435874,0.9726109185574796,0.9468069237786583,0.6381564364954754,0.19616807702491904,0.8007076013312645,0.34273158580453017,0.7364511798178025,0.20776483010615004,0.9937036776411343,0.8933561642282976,0.9292887372858583,0.25564598137318467,0.8877661126303741,0.4971116800899529,0.5585451293135574,0.8519911170515813,0.3602635577004367,0.9661863614716794,0.8706111561257465,0.9275968128923673,0.5866508927275299,0.8654987883905991,0.38498577808867007,0.8591505209152268,0.11521020314665198,0.9137656192768928,0.5337337513805109,0.7886660196793129,0.20474060715539485,0.906806596458837,0.2887946793895729,0.7287030167557782,0.1196127928639576,0.9443471337691681,0.7855987487429464,0.8853117387466276,0.4725095546483866,0.8853138448726683,0.3513747015747162,0.6513968428062206,0.08344526146958768,0.8601145403209374,0.4590115574752862,0.9649746812352987,0.9294052026204052,0.5934487347676901,0.08674590488994002,0.7444288547702519,0.16689583850936307,0.6800779366187446,0.12497030851207944,0.9814287429817729,0.7404406065059498,0.842063573883245,0.40342111071195436
25,2.954593787699503,0.6905915380984323,0.9139196994135532,0.5947693795735581,0.8200283953907789,0.2303289840171352,0.9681739178031893,0.9222685189110817,0.7807443320209412,0.32147744351386914,0.9707412643198701,0.7355010787334216,0.8644280528679377,0.17295840318180553,0.9487616345980535,0.6643001377195558,0.8870738983581813,0.2466515450304171,0.9015495617912515,0.30953282138747723,0.9474872976276023,0.6650146673293413,0.9676463178050441,0.7813503213524098,0.8712212669658289,0.4877367481687434,0.9458133332816306,0.5681535036239741,0.8752278304124586,0.4845221587511329,0.9937077672752814,0.9691056678745751,0.9589638523174098,0.7460633856998546,0.9545769769748477,0.5164896895360985,0.9317364280266176,0.3692503043999596,0.7600491083792433,0.2786228113814363,0.9110960702960625,0.4649592572677485,0.9302251756267969,0.7437879946105654,0.9738828326988737,0.9520087829628003,0.6672976977978136,0.2650601043377006,0.8136729384826995,0.39479308481833664,0.722196525236354,0.28638059942181565,0.9908831246716031,0.8277260660781809,0.9467276050796207,0.28845605660381796,0.8969567742785016,0.529158130232845,0.5738242528135947,0.8513104155141783,0.37881192416273485,0.9526558126860675,0.8764282090731544,0.9372716113067847,0.6005170458029028,0.8808631862571081,0.4162702553106243,0.8518732856968151,0.14705681443912302,0.923045615697985,0.5372477914380351,0.7841514313239256,0.2245382967000486,0.9040874877750994,0.27698716835304615,0.7552049884560796,0.14663503212858076,0.9572646244819786,0.8169672549637907,0.8577189383777651,0.45951091450653947,0.8762749902455785,0.3564226618444775,0.6699819812761957,0.08157008206196856,0.8404678293268132,0.5043201316816284,0.9657662220748447,0.9353614003934902,0.6150019795796235,0.10660313120873635,0.7411845416866074,0.1893742229559095,0.6545738144308219,0.14152737041676777,0.9803154202080662,0.6386501922656573,0.8420533777053862,0.4123578894582745
26,2.916028452234675,0.7093239919505105,0.8969964851451099,0.495011437033515,0.8205099140152721,0.28844778290912504,0.9730579375969447,0.9174628222459882,0.7338816049656686,0.2900122578393914,0.9698085086247115,0.7025709320819671,0.8029715249094707,0.16755120765568826,0.941243679128111,0.6312117353464226,0.8730207587971647,0.22441882574488903,0.9107604761300756,0.3972172501606099,0.9449088243479604,0.6483505499643157,0.9357364659854518,0.6500749227932777,0.8238108267626295,0.44506808683265137,0.9404877081719645,0.5963650431526757,0.862793854865421,0.44575340877248326,0.9899633321487131,0.9538787939611747,0.962066869154564,0.7374987135508749,0.956404158985348,0.4695864690696907,0.921509945829814,0.30351219747769,0.781256255978383,0.2779457143978863,0.8940313946271854,0.46531438097315847,0.9345916050706028,0.7678985108273249,0.9667465561740645,0.9400694158777778,0.6766876197340019,0.2664666750419165,0.7781299542684762,0.3428439443032264,0.7306250626839913,0.2648446208962025,0.9860535591284595,0.8539644112495302,0.938040418997931,0.3217209559763425,0.8868924186010183,0.5135207802272517,0.5935753148990087,0.8482407531280586,0.3284678789650885,0.9604491736055587,0.8731581537035534,0.9415248649738148,0.5920468698893447,0.8783175938032628,0.39027807731319597,0.858398920898921,0.18409091918558582,0.9199565358408055,0.5325985441502832,0.7378281685625866,0.19652575060896102,0.9000813827784323,0.334481497888555,0.7243776411550182,0.12144017872214269,0.9514041732216191,0.7914721705066949,0.8659377683187975,0.45153624553982286,0.8728492956434133,0.3424673246679096,0.6893581808923186,0.11206953425887732,0.8451233559128919,0.5215690122965358,0.9572712342350718,0.9221644446066829,0.6234223795723063,0.10870846314502718,0.7033003772924462,0.16812772494130607,0.6622171556576011,0.12908998592106818,0.9695884093673415,0.6853064599835205,0.837349861308435,0.4097683808575871
27,2.8862778164875977,0.674741000223597,0.9140557234600662,0.5720777090841821,0.8317456942818238,0.2850979265446442,0.9745765911143087,0.9212250014881882,0.7686366628443544,0.3885835566682141,0.9680299142749426,0.7221727130234592,0.7216258719386456,0.128336587266574,0.9461978593936063,0.6747773266586752,0.9004277968172621,0.2414355215280814,0.9236919554324561,0.4188321913033017,0.9482606034607597,0.6829226079778375,0.9514756853838764,0.7076092158006104,0.8455446234833899,0.505239726263265,0.9456211834937893,0.6519179218604734,0.91132011890613,0.6225465079296291,0.9898604218422231,0.9510945637392266,0.9652938480584962,0.7496982116128907,0.9392985634398733,0.40329002235691697,0.8917950589426269,0.37707809972404377,0.7780401906742733,0.3200598368901618,0.9049897379129076,0.5371993382852516,0.9264107831904441,0.7449729319261011,0.9759734343036661,0.9549199487491202,0.7332498887691803,0.33306569544541226,0.8166544181543413,0.44273525405094905,0.7798640487108098,0.34994113093754387,0.9912997142650798,0.8915562325791014,0.9383216490536912,0.31306048451140367,0.8956393348741861,0.551535046822417,0.572855332786763,0.8572805981234252,0.3814186627623506,0.9656176197975472,0.8811631477690249,0.9288745938965772,0.5952566575847835,0.873244489327033,0.40310127506922877,0.8676128455540221,0.18214260023601303,0.9237491646884812,0.5297265260397199,0.7486951621642195,0.21726244262121508,0.8985278955944714,0.350968558153163,0.744492914212026,0.1500882871042351,0.9498517455890687,0.7824940008836446,0.863899832144907,0.46072925918516167,0.8495766289883938,0.314619414376053,0.6565631242900232,0.10980910941747532,0.8466047496080804,0.5060537074777278,0.967458223479189,0.9341721793990321,0.6589920934413849,0.13696989435541965,0.7276085453745353,0.22376774089715398,0.6793592640666104,0.1644878570075947,0.9765544756648908,0.7289184499980462,0.8412928403160466,0.42384998791247597
28,2.8560217036593434,0.6932001689399021,0.9219393115408903,0.6405763453456305,0.8175154862736598,0.32325212861637054,0.9577070552247857,0.879370024137767,0.7900027753118315,0.395803484261137,0.9599767055387737,0.6843144917073763,0.682406983733144,0.12563823857423878,0.9503196145756709,0.7104239879589996,0.8936940014032269,0.27173494629285927,0.9084239006281669,0.3058766785408804,0.9416146484496217,0.6207327403816981,0.9550931841331427,0.7158115410774687,0.8486652939498589,0.44358413821578585,0.9228521946334554,0.490408509211994,0.9029784317747547,0.5013821385025384,0.9846322378628373,0.9434003336097462,0.9592690994238287,0.7328864765008888,0.9678067244096702,0.5774964551603019,0.9016201992294325,0.36868925475849446,0.791911202231048,0.31039276412051936,0.898412366834539,0.4929969706800617,0.9206870187047049,0.7212747652302743,0.9697440453111515,0.9463118643951327,0.6237217648378236,0.23986747820761628,0.8102603938235723,0.39916877585484195,0.7417868811881713,0.2778997254864249,0.9941350474547946,0.8763778061861957,0.9352873287993366,0.34862984342331016,0.8871282924919219,0.5312704409792056,0.5622717448013714,0.8743698497742067,0.4280889668336932,0.9493977970713321,0.8442821868436804,0.9243449109106167,0.5485155044685242,0.8835154973551855,0.4315971220535025,0.8311347667965314,0.104517464513849,0.9126949176711374,0.5055629681192647,0.7775508417786753,0.2086289745859837,0.8714268046382663,0.22444027539844483,0.7652422561798154,0.1348876895922409,0.9372930501152831,0.7526360258189628,0.8543959115624793,0.44455425650119795,0.9200960009783539,0.4234875732301403,0.6799813937091151,0.10252748170673939,0.8304127006898616,0.46210881069521276,0.9603742244720691,0.9287388459010679,0.5567730206163743,0.08878566910822813,0.7134959823441708,0.17380787986848584,0.6612942037429494,0.13116438217777596,0.982250569072638,0.7036272005907551,0.8361076157620558,0.4022083830530394
29,2.8269099301899274,0.6941442448634817,0.8963051921186628,0.5358419774879369,0.8035346972385533,0.3512696236140091,0.9649810633047253,0.9062846196424331,0.7430531110302458,0.33531783305677526,0.9598167200637372,0.7196758465031884,0.6986690277069358,0.1351578578370325,0.9326609647367202,0.683681081397984,0.875932376523661,0.2894157750254554,0.8911126102710597,0.35800688947089615,0.9389653787408911,0.6804626356504906,0.9451274263327059,0.6821008195852163,0.8695645465535214,0.539342172815486,0.9478313956137384,0.5509207112322365,0.8719434626025805,0.4895910895346139,0.9902815058583038,0.9578885519079404,0.952999956868686,0.7148482437270044,0.9710118333777149,0.5836009728896433,0.885364979759044,0.38733652268671764,0.695243542056462,0.23416882530546773,0.8833925146027699,0.522709038719593,0.9265346395191643,0.7335153098629694,0.9724694286856241,0.9490693090944164,0.6579717381791974,0.23949925489027177,0.7777273180259426,0.361312312198581,0.6786143992642975,0.22854039351612693,0.9929722110598981,0.8766767405352778,0.9352703623122466,0.36415986382155346,0.8762723112002625,0.5337183063707155,0.5756130282477454,0.8406008848048496,0.3409693475250823,0.956926330209434,0.8732287795430357,0.9175156548385663,0.5799438529530152,0.8507398644849612,0.4194374536047977,0.8246107694637106,0.13712684314317444,0.9092870913264608,0.552524575014305,0.7659140934455968,0.2396021481769581,0.908058717067305,0.28370743156412465,0.7171047796878126,0.1253972046597036,0.9440228404407854,0.7737550769654086,0.8505805713320254,0.4244828087512247,0.8986107956696191,0.4104910132361231,0.5976004739707783,0.0710158398941286,0.8438984252525127,0.46281401509638787,0.9656338220744616,0.9342290209762483,0.5966232487580261,0.08532546002523311,0.7041170557037063,0.18107273437974256,0.5995599785831512,0.10896262431670811,0.9784413212816729,0.6896527965081162,0.8247287746523915,0.4049336329649219
