epoch,train_loss,train_accuracy,train_1st degree av block_rocauc,train_1st degree av block_prauc,train_abnormal QRS_rocauc,train_abnormal QRS_prauc,train_anterior myocardial infarction_rocauc,train_anterior myocardial infarction_prauc,train_atrial fibrillation_rocauc,train_atrial fibrillation_prauc,train_complete right bundle branch block_rocauc,train_complete right bundle branch block_prauc,train_incomplete right bundle branch block_rocauc,train_incomplete right bundle branch block_prauc,train_left anterior fascicular block_rocauc,train_left anterior fascicular block_prauc,train_left atrial enlargement_rocauc,train_left atrial enlargement_prauc,train_left axis deviation_rocauc,train_left axis deviation_prauc,train_left bundle branch block_rocauc,train_left bundle branch block_prauc,train_left ventricular hypertrophy_rocauc,train_left ventricular hypertrophy_prauc,train_myocardial infarction_rocauc,train_myocardial infarction_prauc,train_myocardial ischemia_rocauc,train_myocardial ischemia_prauc,train_nonspecific intraventricular conduction disorder_rocauc,train_nonspecific intraventricular conduction disorder_prauc,train_nonspecific st t abnormality_rocauc,train_nonspecific st t abnormality_prauc,train_premature atrial contraction_rocauc,train_premature atrial contraction_prauc,train_prolonged pr interval_rocauc,train_prolonged pr interval_prauc,train_qwave abnormal_rocauc,train_qwave abnormal_prauc,train_right axis deviation_rocauc,train_right axis deviation_prauc,train_s t changes_rocauc,train_s t changes_prauc,train_sinus arrhythmia_rocauc,train_sinus arrhythmia_prauc,train_sinus bradycardia_rocauc,train_sinus bradycardia_prauc,train_sinus rhythm_rocauc,train_sinus rhythm_prauc,train_sinus tachycardia_rocauc,train_sinus tachycardia_prauc,train_st depression_rocauc,train_st depression_prauc,train_t wave abnormal_rocauc,train_t wave abnormal_prauc,train_ventricular ectopics_rocauc,train_ventricular ectopics_prauc,train_mean_rocaucs,train_mean_praucs,valid_accuracy,valid_abnormal QRS_rocauc,valid_abnormal QRS_prauc,valid_atrial fibrillation_rocauc,valid_atrial fibrillation_prauc,valid_incomplete right bundle branch block_rocauc,valid_incomplete right bundle branch block_prauc,valid_left anterior fascicular block_rocauc,valid_left anterior fascicular block_prauc,valid_left axis deviation_rocauc,valid_left axis deviation_prauc,valid_left ventricular hypertrophy_rocauc,valid_left ventricular hypertrophy_prauc,valid_myocardial infarction_rocauc,valid_myocardial infarction_prauc,valid_myocardial ischemia_rocauc,valid_myocardial ischemia_prauc,valid_sinus rhythm_rocauc,valid_sinus rhythm_prauc,valid_t wave abnormal_rocauc,valid_t wave abnormal_prauc,valid_ventricular ectopics_rocauc,valid_ventricular ectopics_prauc,valid_mean_rocaucs,valid_mean_praucs
0,5.285814573742781,0.45988855812533397,0.4937252809392753,0.03768168030215334,0.46595312486551155,0.14731457273570636,0.6669182831696686,0.02525913193285517,0.5319738243826255,0.10524914482454797,0.7813085626523509,0.20741849412290012,0.7287620929619887,0.12972359155661306,0.9116989252896079,0.38408692102592523,0.6650081040952611,0.03954865237463214,0.7458007101755175,0.484293165915756,0.799832992823092,0.12182025097338647,0.8727326608953253,0.4796534471751034,0.7336828035472416,0.45454392569677426,0.8239271359435341,0.381723981570432,0.4827740180751275,0.0375522927156966,0.5513821684069178,0.023082096248320645,0.4984882977262983,0.021669701625819583,0.46721387276339577,0.016163759589522014,0.5039811989767214,0.026371448804155245,0.5591054971454348,0.017078534901485143,0.698055517232145,0.0882708472547346,0.5540843771586736,0.04095600052630069,0.5865151826341409,0.03635908122246252,0.7641889841182072,0.9406005531640753,0.38487988927510297,0.034117478845475606,0.5951064174885304,0.0740588621210285,0.6261401010094353,0.16791625766583834,0.6613239685921082,0.110406515007176,0.6353542219386386,0.17158964407032876,0.49885531135531136,0.45614846736236125,0.15434526365707313,0.5632192155990403,0.12454416954140424,0.6922514026399115,0.11880349664434003,0.9012057590573553,0.38748342872493335,0.7515806855392354,0.49859268884436686,0.8850763353072953,0.5459495986579858,0.7260774978545699,0.46139812327533564,0.8362068965517242,0.4338496044094018,0.7747041420118344,0.9464384128885652,0.6357132754695587,0.15847445089831713,0.6933230919486439,0.1221719296382574,0.7195915244855936,0.3592773788345437
1,4.827632245103163,0.5336233875276697,0.4064118383463316,0.03255888316236581,0.39248044906337165,0.12260030214594889,0.6047956129028335,0.02673337721901417,0.5723862442361151,0.13307892525940768,0.8576930483342962,0.4179921264628484,0.8043921406764207,0.25447752275891583,0.8791308941071825,0.3066950158677852,0.56705264795722,0.033555127290801665,0.6103310340548579,0.4000869254674727,0.8613310283409294,0.35298800270648,0.8039501307108545,0.3898579846072694,0.7230368933830861,0.49455396872974056,0.7958138699245418,0.24404211646342694,0.44244055404911187,0.036510626023959825,0.543360531303022,0.026537466005555725,0.5063698390835707,0.020302902699509358,0.42849876796592073,0.013731176948941728,0.5610754282026508,0.03004035734557308,0.43643337836794854,0.015112451509121168,0.8021668527094049,0.13886117300745904,0.552039394373375,0.04111499552271192,0.6440250866535531,0.06344120835027528,0.7922593104578175,0.9492942985248359,0.5532537383282048,0.1014908602597692,0.6417037620014576,0.07786351692556565,0.786601869555344,0.33329591562582134,0.8326731586454201,0.24145386940156244,0.6445076853235127,0.19623226282563475,0.5718864468864469,0.37103661306441355,0.12544917854897808,0.5821782430828133,0.14996979151723216,0.7487073920084777,0.20296903625219337,0.8495023574833757,0.30499988861280053,0.6005943027660248,0.38304055419044625,0.8138722256509696,0.391862094088267,0.6952199270827071,0.4652742481436378,0.7827521065927077,0.2510892031341681,0.7950372086704505,0.9526089099522246,0.7787684093853172,0.28552726203385387,0.82072557836694,0.23682029249390274,0.7125813058321998,0.3408736780879731
2,4.5496925801031916,0.5908709258835203,0.43490143427753336,0.034284291098228774,0.4702387019528059,0.1501143119075624,0.6662139850124744,0.03712681235441224,0.6943419439800802,0.19746296320245255,0.8967668970760022,0.5904466017384284,0.8545431055366947,0.2955433715918546,0.9342423472979926,0.5042429113966119,0.6953520037241673,0.052747528644992145,0.7539136431658782,0.5443096939477261,0.9415757766252816,0.6043831978576409,0.8282796597583668,0.4193101271521427,0.7499092602959432,0.5247280824469182,0.7968594173066159,0.2531002296808425,0.5204360797466978,0.047856415492737656,0.7059017499528693,0.05106054544683361,0.5768391727049094,0.029376879592787578,0.4649327079691425,0.016071292616593194,0.6332765930142918,0.037748928207077065,0.5117075012982109,0.017054032547705187,0.8230803897846775,0.15099134853983598,0.5666245513462262,0.0468091121243419,0.7572732874145374,0.10045432254418697,0.8063720701625043,0.9538006716205469,0.7927572771941688,0.2673567916394307,0.7026182688621417,0.09901284541492247,0.8343156158381932,0.3761197258740163,0.8743121159261404,0.3735947155113582,0.7143550206379463,0.25092991667378467,0.6563644688644689,0.43978217529149416,0.1431686546568887,0.6848594876063501,0.22372263611147206,0.7982879887874269,0.22306827817619843,0.9052946781592165,0.43467019812391433,0.7428096306328693,0.530424551253622,0.8148930195210812,0.4065178969561967,0.7261928318037465,0.4991163719810957,0.7808243755299604,0.2546695472457551,0.8104184277261199,0.9567975831787981,0.8077032555326538,0.2978167544803539,0.8488610698516694,0.33383554769003604,0.7599933582220534,0.39125527453221187
3,4.334049724056634,0.6369742767727654,0.5079180258745236,0.04076118448056629,0.4081029419159487,0.1278496659020345,0.6888397058443445,0.037722480158662114,0.7609803021040517,0.22960421701839873,0.9214219204893213,0.6102942179423193,0.8939093782193516,0.3448128438466168,0.9483380311684834,0.5239517102552709,0.7131588081405054,0.05858981051218086,0.818723470799821,0.6172410089326396,0.9732773848813453,0.7378510489232692,0.8540983729498361,0.5057019033788062,0.7886396488897824,0.586227017036693,0.8043740407439218,0.24776601045841048,0.5353670048202537,0.053310777885880054,0.7372006376694636,0.07886676689174951,0.6311812422698891,0.039057987979367104,0.505803313067914,0.019226260822676294,0.6197466771809066,0.03626793166507862,0.5865211621478439,0.03438503837957495,0.8320477288605337,0.17475586764457368,0.5981539612611969,0.05644976381015475,0.791987431264729,0.11026313004977085,0.8043204620157896,0.9541242606979916,0.8594301918910979,0.3290524581761867,0.7245225089207852,0.1259979053939491,0.8557129829300166,0.44156439785574,0.8896589144551101,0.44367175402375636,0.7427198611398801,0.2801987933378636,0.6659798534798534,0.37182035154375037,0.12362038009585866,0.7489417818567711,0.2531844430303984,0.8242159958636546,0.2536677855357975,0.920969836414185,0.45285174865535943,0.8028552663659282,0.5785263325126303,0.8359087200996022,0.4610907223724127,0.7643194477088993,0.5480861025918067,0.7875609454494064,0.2530840287495307,0.8032789669122087,0.9539894295901493,0.8174098474936252,0.3209469611529737,0.8642857142857141,0.3663588798323522,0.7765060794539768,0.41503698310175174
4,4.159332965295849,0.5565224028700099,0.38822645437964554,0.030107285522963045,0.3812931863575846,0.12392670213992615,0.6463552855429214,0.03473823727192868,0.6333057510402842,0.18104960201755663,0.8994084018891687,0.6721767623256996,0.850370019231223,0.37218349175757887,0.9255310203509731,0.5454748528158939,0.591267451521888,0.03914587301752262,0.7292898627740796,0.5224259183089932,0.9274874535072554,0.6025793521869973,0.7911525274699337,0.43382212746091453,0.6810183683958728,0.45930449767819315,0.7519840654959012,0.2387065003001746,0.498271479452145,0.052161831106422404,0.6502125013643083,0.05760066135500763,0.594210899220499,0.03889041070831087,0.46330895118997195,0.018997064639245366,0.5920786810456338,0.035181127860299505,0.5501176819686946,0.03606439530668915,0.8450431502769964,0.21121945150886254,0.5980712459287479,0.056211075530698956,0.7643689271051467,0.11569937414610187,0.8280979735610645,0.9602809902196372,0.75800490592886,0.29095733711337324,0.6439645016998993,0.11177728687496742,0.8536166386950381,0.4744489234223224,0.8452056307611079,0.4655435131511966,0.6918986302279571,0.2659509128054621,0.6391941391941391,0.35235809751968217,0.11893381053752508,0.5972496294542233,0.19795222774429366,0.7686071454515154,0.24800060036565855,0.8733448229781275,0.4146668803202673,0.7024114495294689,0.46698288325084136,0.7686775380501983,0.3565105308729404,0.6454981497373556,0.4185244994857962,0.7481368578646128,0.2482450756523501,0.823722980316387,0.9586026044543641,0.8087737767859625,0.35757822444657017,0.7836653305389953,0.33345236336367157,0.7156768889296845,0.37449542731766167
5,3.9995978169746595,0.6383482176933059,0.43427369270898025,0.037291740044693746,0.4436280232432244,0.1443479674300803,0.6784656562477669,0.049093995193722165,0.7528608614463356,0.2570648433005561,0.9239315807060027,0.6732409566363178,0.8893994565361355,0.45865195521056645,0.9405195949742283,0.4635383460023027,0.6801969046324685,0.06552011032981366,0.7481016057739274,0.5377941152426715,0.9581907905076221,0.7434551069812261,0.825165749035159,0.4971234686939543,0.7227726415832092,0.5335895247005094,0.7914541220126979,0.2891288359340935,0.534681197716063,0.05529013081900512,0.7221719127768719,0.08341783883396661,0.6054198446463228,0.04852728565787285,0.48587896533002406,0.0203494707974629,0.6017590971268414,0.03747285323504956,0.6412895485972954,0.06478283790350083,0.8467939745881325,0.24448960729402375,0.6168750557559447,0.06462213984172488,0.8262935570410115,0.17535583628504745,0.8432444116773672,0.9637830119616831,0.8066727738099723,0.31285403858718097,0.6815263257950768,0.12501874846153693,0.8773847735676199,0.517073051942499,0.8606813323604685,0.4604328432096157,0.7310975351924728,0.2934559503900251,0.6513278388278388,0.41155140837024895,0.1358410187345851,0.6930023257278763,0.2468866588545785,0.7977559897958748,0.3010079149480476,0.8923858951900367,0.34822007897825935,0.714179245073919,0.45768684003632043,0.7908184076042737,0.3773265610439885,0.6730089862091206,0.46740925276734274,0.7746288068824193,0.2812582098817279,0.8355274876222678,0.9595470178548146,0.8194334226322041,0.34912094140769717,0.8083585976763586,0.33801775378426024,0.7464227793440545,0.38748384075378384
6,3.8239571557919603,0.6143805816349897,0.45235619635350954,0.034639862448747824,0.43231842420107647,0.14191855790061703,0.6542272332675025,0.048294325359574675,0.7151052390433998,0.23984991672334333,0.920502614750089,0.6221942137790888,0.8823855145014404,0.42177381889900134,0.9354070177187446,0.47451668090222754,0.6250622846808347,0.057812192493357506,0.678847404942698,0.4600511012841554,0.9666888784116507,0.7409863328562089,0.7442494661902457,0.39335745098349323,0.6761806132407401,0.4817047367175435,0.7417408803048781,0.2385902302811354,0.54058007782255,0.0716332709986425,0.6995945110153431,0.07361136054698321,0.5724686712960041,0.0471110767632042,0.471542399274502,0.01878501740954452,0.5936443093381144,0.039062396096413474,0.589929293406138,0.09116986637846124,0.8434475781506618,0.272079503253279,0.6265854768966164,0.06355067285049713,0.7992727877141459,0.14591182182942256,0.8348334920488638,0.9620861602850501,0.8296048825293741,0.32759683631204617,0.6081532631958108,0.08802115552294756,0.8760530404391256,0.5328945905943286,0.8741059855940221,0.47569149945609973,0.7105513902343732,0.28018128329353387,0.612408424908425,0.3859381720021321,0.12628624487707363,0.6438415252054844,0.20290709340157012,0.7721260303474444,0.2465778331915832,0.8717931399122081,0.3599538627288497,0.6296940819366722,0.3697581963456241,0.6877315739232013,0.26928213241767807,0.6086683575024461,0.3928031540833259,0.7077450404536461,0.21533833428496157,0.8248422593889626,0.9576410011488299,0.8030294153675723,0.3187535949747511,0.8347284676582498,0.3598480415845907,0.7063761876089107,0.3471954080944399
7,3.6742312375866413,0.6683459277917716,0.44302840771659613,0.041659480759039025,0.446241504295249,0.15023200041484447,0.687568320342016,0.06441952597690916,0.7254715259392368,0.2631176749259448,0.9154936104015657,0.6734596833879675,0.8808343860818538,0.4580249421936642,0.9009271616547907,0.43287675883322246,0.6199286411262205,0.054022003598191544,0.7684124055638031,0.596803674394786,0.9432900623395672,0.7143137813279725,0.7722591413998354,0.44069936955270367,0.7177051179071433,0.5216796212328405,0.7347792358544375,0.24228488807711177,0.5905468829795296,0.07407846967673987,0.795236662025262,0.11467593141878862,0.592355184647585,0.04994503444561699,0.5196032880095938,0.020571316678306507,0.6290511750872029,0.04497128608659629,0.6557433371623996,0.056633049734438695,0.8806714928175526,0.3221805022914784,0.6431313632272925,0.07737536457189303,0.8408382262330002,0.20025695928387005,0.8265777040518538,0.9608066933728122,0.8078082920549864,0.34792627617880334,0.6736608026810803,0.11617231441294373,0.89818700706371,0.5684579963792711,0.8608715932923654,0.4841780519281803,0.7322304641465086,0.29969713522721986,0.6808608058608059,0.4002517321205273,0.13588473911572607,0.6381105235000571,0.23105147052767122,0.7625714139208539,0.24659225559274345,0.8049316867263372,0.3095960070726062,0.7167534002237458,0.48882478217025044,0.7008636172407388,0.28032172728295607,0.6407935085024624,0.4108963944099858,0.6952915223996609,0.206766612105236,0.814676292114479,0.9553368546441557,0.8073375384875764,0.3102392951115643,0.7971788715486195,0.32795492846796287,0.7071600097077325,0.35486046059098714
8,3.527310066046255,0.6573544004274483,0.48194626035340493,0.04057554679225801,0.43707758175877115,0.15109076915570824,0.6624450586623732,0.054350733422311406,0.7156342465785893,0.2828329592905576,0.9397619903099255,0.7048745967477097,0.908712374976581,0.5210924447932704,0.9252470415314885,0.5581753810415814,0.6485493574992646,0.0625292824449224,0.7425036938550581,0.5553411240466416,0.961940174969878,0.6829927851985744,0.7597709191461405,0.4359569771523763,0.6706078148282669,0.4899200019760198,0.7478624201371311,0.25788216814391973,0.6041266214404091,0.10406323888731668,0.7042033927455176,0.08908688375500164,0.6092139018053896,0.07055905496752998,0.5160403080980138,0.021771940058022698,0.5982690095567373,0.04047708266370459,0.685763291768107,0.08502320927637255,0.8552883538149835,0.2951766507774619,0.662710287497304,0.09843975076443667,0.8212211745923524,0.194009852044435,0.8392195291780584,0.9635617844166349,0.7960891771558538,0.3400543994648148,0.5864376814173833,0.07988222908387696,0.8744538042713006,0.5792706722632183,0.8877403784456652,0.4814056000848868,0.7275124387553314,0.3051998932856876,0.6027930402930403,0.3973632074165836,0.13182259600337476,0.631930641165782,0.2049057806997776,0.7888583600757191,0.26920221809369965,0.8432549539106916,0.39265453270305645,0.6855150293447563,0.4430198243179916,0.6951376683615831,0.26592568876589223,0.579026302699689,0.36721789717186837,0.7089264105780102,0.22038750792665734,0.8261572047458037,0.9592783510856396,0.7543683362419081,0.2922249084750194,0.8240828534803754,0.34888346173129886,0.7031473607291729,0.35413843336129774
9,3.365969663139118,0.7154415693458515,0.452949862390419,0.04110568923348514,0.46065313696097604,0.15645695344323673,0.6648422569772269,0.055283594766682057,0.7196967473192728,0.27439471537603793,0.933923337902604,0.7360959793539406,0.894855647829251,0.5049359327008118,0.8947786150268449,0.4971936477807723,0.6472699624370618,0.06539233852745266,0.7547225075353605,0.5688851071424299,0.923080098486039,0.4920287024030803,0.7540119946142014,0.44358539087628585,0.6769232168356791,0.5080366339160767,0.6849505494725677,0.22823846954744725,0.6581305949372509,0.11845320613537347,0.8251201418219222,0.15645901342384408,0.584423383337378,0.05611886894919341,0.5141810702289257,0.021106742050285204,0.6638993943463022,0.05113226702813115,0.6779125818921882,0.11498887321354462,0.8914328759721482,0.3597139211318538,0.6572468030694908,0.08941640397794706,0.8459174901489152,0.21301628460185265,0.8355023500138237,0.9630779482130426,0.8082404474814772,0.36421170660073465,0.6972550681012946,0.12799367208254656,0.9167072110478846,0.6431690003464707,0.8865846048714132,0.4885772677783727,0.7379708130021451,0.3088543826148494,0.6430860805860806,0.41245348746076915,0.13816420725552497,0.6341463414634145,0.19859924847884444,0.7694104852941804,0.2576766972566547,0.8031639373313231,0.3349771326845086,0.6825637844528204,0.41789094197901755,0.6818491958578834,0.25367060012797116,0.5869227153219239,0.3804777384639094,0.6345624735019785,0.18548775714681748,0.8180477146479893,0.953253865405743,0.8020772491450329,0.3005625079248523,0.8280139174313795,0.3505280011974139,0.6957464819916995,0.3428444270837506
10,3.203365663018593,0.6702541790702999,0.5072144519477803,0.0442966611167703,0.4664672953590111,0.1644705298722342,0.6670205261293475,0.054423716537877975,0.7331904505525179,0.29648797334770105,0.9395323945192907,0.7049723529259436,0.9112156126900065,0.5000315776418636,0.91010122855912,0.4639608997694874,0.686742229297076,0.0659463833069484,0.760833853300573,0.5673257896017717,0.9387550945570747,0.6399335701562323,0.6499363042759858,0.33500877971698223,0.695002316312128,0.5215755979212428,0.7269212171081192,0.24208767858928693,0.6506695803446993,0.14118542245962368,0.7707082166091729,0.10604556349862015,0.5983253839112197,0.06972317195332596,0.5317785739429267,0.02397791897527988,0.6414475244265446,0.05193243931706409,0.7175643991250845,0.12505183632537886,0.8896498486969155,0.40786379701265385,0.670391534051544,0.12363145336867948,0.8280048191444537,0.24234657735601137,0.8464200534512949,0.9657669339141739,0.8096702203870164,0.3383567815143804,0.6148693926493574,0.08099450803654269,0.901476614380393,0.6376881356707932,0.878030597120271,0.4815842767441972,0.7385903604758861,0.3109877898759655,0.5739468864468864,0.40818191778856294,0.134770292749352,0.6402305476423402,0.192640694090753,0.7774428154497635,0.2494515773631227,0.8126120276681104,0.3021696680571332,0.689760132427618,0.42518202983260356,0.5313325524331411,0.1606943193350588,0.6033881397344586,0.3763536325325153,0.6645505052289429,0.19025827491926128,0.8296869339451758,0.9596288142275595,0.7631988050876094,0.2762443790719215,0.7942407471463162,0.33950106681268016,0.6831477385956398,0.3278995226356329
11,3.0448345069930385,0.7305549194717961,0.4737754054743118,0.05098082337896335,0.4922304308295722,0.1918679106866247,0.7145121908575789,0.0648340655139389,0.7268270450749426,0.31676677694280964,0.9286733732960007,0.6443586839380137,0.9142361139540272,0.4980978893668016,0.918226516981916,0.4852966776344384,0.7436951524722688,0.09853318237925267,0.8068292769831196,0.6429600010510536,0.9554258473466393,0.6592282045854831,0.7620300826753532,0.4838340072786,0.7099890498762516,0.5356285039924666,0.7507487707496524,0.2843416320692078,0.7499467070386246,0.2188569033472064,0.7934906780529913,0.12714179079030072,0.6176170731596237,0.07646262642602522,0.520932273923238,0.025290299516992666,0.6295987788355045,0.04702603670411102,0.7552548502130714,0.12455456674615441,0.8819516453850271,0.40382228489637106,0.6928379801462694,0.15805806605476902,0.8417152427675778,0.20720962455940206,0.8389660348764578,0.9644254620758329,0.8009990110348179,0.39005928949453345,0.6588351977107181,0.1203803268996023,0.9139132438121386,0.6842796492150544,0.8930221960774969,0.515952832914524,0.7587511173927849,0.3340832636466123,0.6476648351648352,0.41262349242444624,0.14047324351902946,0.6293178848234496,0.2078578652761433,0.7618695598295894,0.23298465771324267,0.8247429718525491,0.3077147990938969,0.72032714941153,0.47414073482273245,0.6573672273914445,0.27039762766821274,0.6132539751950018,0.38716491167274847,0.6957734551653476,0.23319543038327636,0.820224761502234,0.9564266406756602,0.7623590761443008,0.2807945928137628,0.8198771033837265,0.3742843067899221,0.7016124233748745,0.35140316458442067
12,2.9139434800294692,0.6859781696053736,0.45680096947747584,0.04583254580005358,0.5178204244828509,0.21634836812706704,0.668256943779295,0.05963561982367856,0.7134545404489754,0.3105360395179203,0.9156120357006987,0.6727778128931412,0.894733134872377,0.5401744243707443,0.8621455362259032,0.44896124486868605,0.7016549614512158,0.07093772314851296,0.7787017859917384,0.5847304033006009,0.8780090104248519,0.37773391421216557,0.7379573158737465,0.4549868457539104,0.6714736691442242,0.5066557763581678,0.6954358111582938,0.23399858651851002,0.7270272741350398,0.20731668625586058,0.8311531961197416,0.14212041437562134,0.6245900316784092,0.08835172104279805,0.5207256919377838,0.022908577596521224,0.6544351835233925,0.05403608396386517,0.780858640014567,0.16808672862688223,0.901681808274399,0.40356090516551574,0.6829959664312469,0.15044828170888885,0.8397460844451314,0.20151703061869727,0.8397186127238658,0.9644899645965115,0.8326757587758027,0.425089872383747,0.6212302573651771,0.08614167863511758,0.9150717246081825,0.6742228962232771,0.8873357946753979,0.4425628407358576,0.7463445245829549,0.31682085135638227,0.6121794871794872,0.431285826304057,0.15081575908951106,0.6123234077295171,0.19212318567108655,0.7554855719309641,0.25186242993720137,0.7620989881559338,0.2994323491668072,0.6868428635255938,0.4279444033903185,0.6441470925526894,0.25539434276484074,0.5628053479969608,0.35444109293052817,0.6436441183224986,0.1878066777386233,0.8222248218814153,0.9549589835838863,0.7661121141699969,0.2810832722243151,0.8237684904470262,0.3314924103451389,0.682794422092423,0.33521408244020523
13,2.828956198131808,0.7602473093656973,0.43759675162941514,0.04063808763211073,0.48948804474325225,0.19820893838301698,0.6416707335799328,0.06427767203640185,0.6887176722428663,0.2690516713913581,0.887516136705066,0.5867935804500372,0.8702652203836516,0.4689624273763559,0.822818608725112,0.3763000205145312,0.6903382050295156,0.08303353078143753,0.7737879820005449,0.5984129795047767,0.8530676305725811,0.3765146079854631,0.7072224385983548,0.40889115890459243,0.6354603062240394,0.4752582435087022,0.6701941687916679,0.21315341336359936,0.7012076168573791,0.22144519121107298,0.7939431323197211,0.11867555050519957,0.6197719076466045,0.08757757862459385,0.51050454480368,0.02985675436171907,0.6309269300620161,0.04741645082135715,0.7308983169342892,0.10605876565346484,0.8906845807801185,0.4557285525869546,0.6971398610314055,0.18349121457786158,0.8286914837078616,0.20155453184758404,0.8430724459599217,0.9652532525868418,0.7855377394810277,0.3687290584724555,0.5802538237202307,0.0764117274845787,0.902808796892423,0.6763587994405814,0.8809014690137643,0.4149210402427148,0.7246106129050534,0.30048054815738384,0.6353021978021978,0.4029745409768501,0.13710692261153556,0.5781957231163957,0.1629824555290939,0.7234203475726745,0.2118573741881511,0.7029077080845847,0.22015705396281235,0.692684692314602,0.44228060214634723,0.6035224862950949,0.20944982730143677,0.5388639879309307,0.3327952256407067,0.6196037883338044,0.17421722203583856,0.826694768143944,0.9586698739996348,0.7426618401485119,0.27283702814923155,0.8142216208517304,0.33660246328911847,0.6587046821608293,0.31445054989580973
14,2.730238859748651,0.6959010762537211,0.4488390621629219,0.04141176752949857,0.507688796836515,0.2006885486135149,0.6618046148443095,0.07027524618359429,0.7448601124672025,0.28268161977359213,0.8904725756529661,0.6113986656637391,0.8703661204896569,0.4582422978791258,0.7981852106549481,0.34734811232435653,0.6861255243409478,0.07434751790361968,0.7072449338403073,0.5099950413319018,0.843093718895699,0.29454938829295224,0.6835601410083914,0.3736946669357369,0.637034875665161,0.45509328928639364,0.70613980660596,0.23160661534201293,0.669972669853811,0.17583785111512953,0.7928182807399347,0.10241765850381188,0.6261902174938467,0.11799628414580361,0.5041193342839585,0.02808010301223758,0.6192788136515255,0.042499889056483164,0.7689278389604123,0.13170386203846737,0.9087655281845427,0.4897534572538004,0.6957563445565279,0.23036826411915695,0.8086294658075772,0.1931222646667821,0.8360758967427477,0.9638367993940227,0.7999575195197348,0.37293300607883134,0.5919388541793932,0.06689396241598058,0.8892896025232586,0.6460902532029188,0.8853888427002135,0.41257687290037887,0.7252786926912026,0.2935349372208831,0.5718864468864469,0.4178148825308592,0.1372994489545576,0.639713099102159,0.1779450032481045,0.7290405216581276,0.20378488797465932,0.6722284681732482,0.20231364539418634,0.6307378593434848,0.3833847447582129,0.5840964372585491,0.19750574779397265,0.5388929580698235,0.31511714171749133,0.6534908935132844,0.19165675532677512,0.8166446534234997,0.9571100565364966,0.7226124979361841,0.26568516306255113,0.8188170183327568,0.31247183334992645,0.6567353899401795,0.3040249480106303
15,2.6350251691194537,0.7984886649874056,0.5037743758539313,0.056023763036456634,0.505651571798813,0.2151679585535021,0.6691368413690978,0.07004407453229254,0.7314866962308009,0.30546289282123096,0.8972624465660353,0.5551993189421999,0.8766048294306585,0.43999124756345287,0.882315439037006,0.44219853669108383,0.7224248158546718,0.08512642503899659,0.767511430084926,0.5858353394811954,0.9104784954685945,0.5155638180115238,0.6656871343735125,0.37040769039170224,0.6299093122634812,0.46807695431874,0.6795402450085289,0.2133985877298359,0.7325043408640873,0.2549761898339323,0.8169637275881343,0.1319221108249651,0.6275464229552332,0.09106542595094243,0.5154902928840337,0.03152016814566658,0.6490035494858963,0.052718882950388915,0.737588879672154,0.1214514675964363,0.9095671277566161,0.48612264385125514,0.707188748527274,0.2010587813965652,0.8363523565319946,0.19762833966183788,0.8451581728258531,0.9657150267423418,0.790735089948665,0.40029278568140764,0.61448055648005,0.08828286333401812,0.9015380301302672,0.6553331897712518,0.889180999160354,0.4181869698820828,0.7412993306722471,0.3118063501013076,0.6584249084249084,0.3973936211486175,0.1357763319488133,0.6231659080344849,0.19463971086756868,0.7286228276707845,0.20510862962839801,0.7754566080709308,0.2745993341963052,0.6819742354089893,0.43262970182953425,0.5498560637932102,0.18023916451882685,0.5330136596937911,0.3213617832228686,0.6176882021975693,0.17357156996517242,0.8253947288974761,0.9577223061422242,0.7249896587291865,0.26174674046057045,0.8230115775123609,0.33113684159175377,0.6618697355597637,0.3153211013065488
16,2.5825700042320747,0.7857415464468361,0.4969921193182933,0.050217801158951525,0.5311455718595168,0.22160253433330102,0.659792442990998,0.07489352448570705,0.7465941778358696,0.3278999957124455,0.8810374676846545,0.5456734421900666,0.8667079498206194,0.40126818141729564,0.8371130516282033,0.41703454066450724,0.7015311795064975,0.0836374052703212,0.7192567936364578,0.5364240758902323,0.8786920215831107,0.36957163194245585,0.6825653947684185,0.37217654162583,0.6160395050962311,0.44748723343319413,0.6786843782016946,0.21814897768868624,0.7127928641795521,0.22384792165873563,0.8037145569222526,0.12421223131174201,0.6527086048292495,0.10224801778781648,0.5163479437261722,0.028936130118348634,0.6559939536920885,0.05670180740403082,0.7429490104748566,0.1179387254324282,0.9163894951897247,0.519889003411699,0.7192364759576949,0.2526928748291618,0.8125882151167839,0.18248042647931229,0.8259886339200688,0.9609995842399448,0.7799106837948453,0.3767318748958804,0.6039528188417093,0.0761178361107453,0.8902552378646972,0.6368894288871204,0.8783885466241831,0.43752580142807074,0.7336062627801646,0.3023425018447419,0.6302655677655677,0.4209701122695624,0.13955724817144324,0.6286242326971667,0.18974959081056336,0.7087775560521828,0.18213769839992688,0.7299664752210051,0.2592284828475079,0.6365718138687366,0.3898003563602017,0.5928297772832789,0.18505037585487893,0.5215013091223141,0.31758079800747563,0.626947052536744,0.18352888028034536,0.8095953840115928,0.95470689270807,0.7093703453185556,0.25229402238913584,0.7895100413046574,0.3302489186044854,0.6522421908805269,0.30762575131218495
17,2.512709527987122,0.8200900694603466,0.5252714602305042,0.05721476318150316,0.5291751663352872,0.2189528430551623,0.6937827158466705,0.08058638023250701,0.7686683687041221,0.3680521771911592,0.9056295462063311,0.6221172017076894,0.9023196669477742,0.4390087940774731,0.827822874942664,0.42929288304218655,0.7309166352224832,0.09676715737020214,0.6780286106808517,0.5050206060336488,0.8789501807323589,0.3758395485694829,0.6916204285624362,0.39065111049402335,0.6444177409911612,0.48442894151159277,0.6989953942350463,0.23622719716507246,0.7883327951869948,0.31670106574557033,0.8938412639614223,0.23182075078472675,0.6865244445543259,0.10796713103875212,0.5623857087029933,0.034310986423213174,0.6792990207064193,0.059507870048108535,0.7396152500245405,0.1296906170396144,0.937238287358235,0.5451562486324736,0.7494535490175503,0.25553171366061905,0.8447100573173288,0.18627698499619721,0.8299614577253505,0.9623307991877366,0.8047963739372607,0.3922908816821147,0.6333361155931532,0.10343773054849122,0.9278482078285009,0.7102208496968485,0.8978337753085425,0.45598521962415756,0.7574361146985299,0.32575512787927136,0.6852106227106227,0.4028786207450507,0.1382556657587328,0.6279066615320463,0.20724898891121185,0.7441106216055687,0.2197031317439862,0.6964162766578642,0.26499995854698344,0.5921309274249524,0.36377580559238787,0.5799144924967379,0.19714928675014942,0.5521910717311571,0.33675188007309753,0.6262144926512154,0.19009919312325135,0.8104199372056514,0.9553562509632054,0.7473475158166705,0.26741369965881134,0.8119437605550696,0.3082675353303457,0.6537703980383622,0.31354739967746936
18,2.4601559828150483,0.7861231967025418,0.5045793592165733,0.0577158113834695,0.525681706266855,0.21406079396363378,0.6569096856390071,0.060233870692408015,0.7179571211269548,0.299684228055164,0.8639016959307994,0.5201649750193383,0.85772344557246,0.4037007921983652,0.8324266604439375,0.4017170485528464,0.7029327816795163,0.07153096991720598,0.7290234593382591,0.5472305907726049,0.8970884802765992,0.49362776984704165,0.622118816560249,0.3353685752854288,0.6023912643445275,0.4354699917728839,0.6619272681856251,0.20350899896204833,0.7145997179673882,0.22400041666884238,0.835319876567301,0.1531733914972521,0.6694882723523414,0.12205431175490623,0.5274679462320042,0.035007019666932385,0.6388911878456378,0.05032673098275177,0.7402072191762038,0.15755419058694037,0.9303215143935385,0.5668886824221029,0.7181581004458082,0.31693626300192096,0.8177524916204904,0.1905578001582355,0.8307915911487933,0.9625585611063583,0.7816279732890581,0.39322151886349505,0.5906652462220949,0.0770104844886168,0.9121553153384186,0.6893364274271849,0.8892586847441095,0.44856165193875924,0.732272847478687,0.3122667358143236,0.644459706959707,0.4057031986277948,0.1341703831831815,0.6069448131962931,0.16208543234148906,0.7107271507501398,0.17422847688212284,0.7199649645723849,0.24667411677308487,0.6461822069636489,0.39978850136398336,0.5211270162280599,0.16541173511775792,0.5156359492093338,0.2996456559217924,0.6239257260457884,0.18112665547954546,0.8150083776113997,0.9563684999076368,0.7331520134261947,0.2715866500953557,0.8089405253626876,0.3302154690026121,0.646119267453975,0.30193650691532387
19,2.405003178675624,0.7697885657583391,0.46633312958834794,0.04574224365239189,0.5500479288442399,0.21816694297771205,0.57058869139654,0.04336128889887679,0.6785881305768908,0.2854863397449384,0.8243483169852742,0.4571854025542654,0.82105787620448,0.3598763006600722,0.7434704477297728,0.2682841981551771,0.7015283448054734,0.07800242773914359,0.7029308174663821,0.501303394324691,0.8251013672795852,0.3246820567253243,0.6470071123818291,0.33052371602354064,0.5275833830103343,0.3607518718533292,0.58210126671894,0.1618325115244254,0.7061421991295209,0.20613672717270778,0.8224014473244673,0.14433411882076294,0.6193503095948039,0.09661627847962152,0.5030890345983807,0.035135221928484194,0.6289724810227578,0.045457299883861185,0.7340756551562386,0.15054560098066316,0.8986398993369238,0.5132769680153076,0.7030035919645814,0.31410512260136836,0.8210670297258212,0.1878799778325216,0.8156271516194104,0.9588102945406604,0.75138429092054,0.3712679991675302,0.5466120237859518,0.06734262640818944,0.8947415235779558,0.6646549537851882,0.8475351670492127,0.35965605451057575,0.7012343932516538,0.27964510885041965,0.6190476190476191,0.41918545007059493,0.13540733983239323,0.5633292431776922,0.147944205839674,0.6806852317934561,0.15704748473568353,0.642180359824881,0.1535007762222126,0.628272631508954,0.36521313301365416,0.5643324371133316,0.17742786305301572,0.44061832115312094,0.2484694158160799,0.5368300416902204,0.13321128460625928,0.8042140894819466,0.9542018096841304,0.713248839676867,0.2599900969064095,0.7547113760758541,0.28219783504329843,0.613418911051538,0.27405556770480094
20,2.3826074911869077,0.7825356842989085,0.5208451549006661,0.05957916205063706,0.5512891862470493,0.229840955368624,0.6257732836485761,0.057518979960810825,0.7615361109860179,0.3434796995838497,0.8479877512008593,0.4746676120628519,0.8336240332011919,0.35352820827864884,0.7991655431829049,0.32339719120561405,0.7359573635768636,0.09623622520601784,0.7234960139594817,0.5184749374666852,0.8908055948451987,0.47499764979670633,0.6587504352110848,0.34519102111722216,0.5743328949067994,0.39480734553769714,0.6271143373135086,0.19162428872097906,0.7359776910886262,0.22712175593178038,0.8396380365866162,0.1397715963791047,0.6613627506410177,0.132603240957805,0.5134289477295373,0.030652496665359887,0.6456463235341982,0.04728232591828019,0.7610055682566659,0.1572854408676633,0.9239441410774568,0.5523594230515944,0.730235906178938,0.352112656915563,0.8176556217352732,0.18522054828219747,0.816311328192998,0.9589710205519316,0.8013670016407204,0.3913824887154126,0.6099052311399648,0.07302745088364937,0.8973229623602342,0.6539586749790571,0.8811008963862224,0.4166990434502861,0.7327992633232842,0.30302931258911214,0.6078296703296703,0.4108801617074737,0.13471455319372372,0.6453245056133998,0.19030968721440317,0.6861451652188033,0.15491722073861058,0.6899190350441429,0.1936442166115895,0.6421549585113792,0.384778800665942,0.5589054655183091,0.1743744259491058,0.47049227371861796,0.2700589853474722,0.5675164066916337,0.15523639720611415,0.8056782846274604,0.9544402376754564,0.7234735307850313,0.25869907348582477,0.7983142409506175,0.31807879558858804,0.6362549116715335,0.2899320357888027
21,2.3467880216375323,0.8220746507900161,0.46243201236851905,0.055971715502252155,0.5752731106046418,0.24939482367733629,0.62584169901193,0.06429473816115441,0.720941232304046,0.2962833044597677,0.8568061166499259,0.5427011274721418,0.8484756739236079,0.39938596273848354,0.7299543978289694,0.3311071838728226,0.6942478876752869,0.07123278628053992,0.7029530299216862,0.5186301585766779,0.7296212478390695,0.16244238665759267,0.6261119089980998,0.30840273410731894,0.5416595733064421,0.37347021171825323,0.5881977607005893,0.16468434826775258,0.7397226953883056,0.23484747991469002,0.8126293612390896,0.15423615763090023,0.6692826782406609,0.133575970857442,0.5057149377420067,0.03256085369647259,0.6347572503154737,0.04818610153112399,0.7085387428823202,0.09896975246419158,0.8921562562393243,0.516826490683851,0.7401831085037173,0.3363134203721102,0.8387850081413052,0.18520322852693685,0.8174307334705455,0.9591494597411326,0.81858844132778,0.410602075397518,0.5220089039335711,0.06108931354942545,0.8903944568840466,0.6572572399651995,0.8686757289153534,0.3456898264765789,0.7096808871983818,0.2856484760110987,0.6513278388278388,0.42532473482539984,0.14222498860901267,0.5913129240147947,0.16021295554015427,0.7146370228567278,0.18794942360801506,0.6129471302033855,0.1749480589742714,0.6298054881868546,0.4002799340907725,0.5223885935894999,0.14902240427906688,0.44233193219894285,0.25087266299039374,0.5235843432023742,0.14324343151513508,0.8053586523366743,0.954128790786219,0.7267120203144575,0.28654024996278626,0.7871640181496327,0.27401522586506044,0.616506078170795,0.2839489205655352
22,2.3257723750708514,0.8197084192046409,0.47955084036634876,0.06604783896383984,0.5667912454205982,0.25089135809229945,0.6142863441414403,0.06339715422766234,0.7046577276578413,0.3107244028021573,0.792961586925847,0.4027450916275668,0.7977420049308604,0.35532264587912626,0.7230945535319682,0.29917511433614374,0.6583668720460052,0.0756696255651305,0.6502775469816956,0.4596520240555206,0.7715054743569594,0.2541098467072803,0.5742162758126891,0.29673439848590843,0.5566841085585589,0.3975981644145362,0.6055526984733386,0.18335437177451294,0.6811895614985948,0.22107234984605675,0.7877374309990706,0.14547377440285153,0.6299621537674795,0.12491371260543979,0.49763362945903866,0.03205499299760719,0.6050113589128177,0.04528075832719118,0.6546474449037825,0.14413769653252953,0.9184152311206732,0.5788827929458829,0.7320517982552532,0.369031554061253,0.8168113186373424,0.18578029731034357,0.8211692931527048,0.9604651101678495,0.7584049023760585,0.38238934657213003,0.5455456371357434,0.06298389346481266,0.8828381626085336,0.6633233896417037,0.8137332872872469,0.3353704493979912,0.6904014255303144,0.28394748722982693,0.6467490842490843,0.4152983411648693,0.13759611961924995,0.5733050769754535,0.1574676329773344,0.6568926985809087,0.1581230332628247,0.6111278153987386,0.15774858588140922,0.5720588458312481,0.3308499313490329,0.47233659289758106,0.130391275283998,0.4680776399722324,0.27770965575399764,0.5654252711630865,0.1537957462987139,0.8110505222799178,0.9549525954278075,0.700919796121624,0.2570017628988924,0.7374804158951717,0.26619215761384496,0.5985430014800754,0.27107531785155503
23,2.2765458486669985,0.8269597740630487,0.4868000215729984,0.057053966772369756,0.5738697649176262,0.2606380999072407,0.6069803435059378,0.05575089001154224,0.7472225509084289,0.3442375425739571,0.8095148773040095,0.4517309109549591,0.8119267778285623,0.3483990461488975,0.7350567800792736,0.3051794542569033,0.7051214858368888,0.08694192040656537,0.6750898006246355,0.48029104440251447,0.7380788936036461,0.20726675706305683,0.6122223131985507,0.3146472575851054,0.545150946601226,0.3814636904133003,0.6081048372554022,0.18261814315654587,0.742465759066393,0.26154712218071113,0.8238077598552674,0.1786122045520467,0.6649762623380865,0.1248530087355593,0.496220742919533,0.02468622922905455,0.6382786062804605,0.05069652812389902,0.7089553692726047,0.14513373369164792,0.9159347554388265,0.5362337494765993,0.7498803703869539,0.40122459344554023,0.8335815602086037,0.19638403453342979,0.8241980155438823,0.9605663835224877,0.7916677003481439,0.38311534508673734,0.5519384934510694,0.06137280095514879,0.8997727018076603,0.6825329856592286,0.864937940905791,0.38183471753376336,0.7096946455948319,0.2912967466806967,0.6614010989010989,0.41828161634168814,0.14182316763092284,0.6185901959049012,0.18202969550209605,0.6687975113557214,0.1407214760298867,0.6254230542410008,0.1676496404607336,0.5936567847572919,0.35065016943150723,0.5199973092044428,0.15925106803258424,0.45784954112393206,0.27088657566899144,0.5614351107617298,0.15407216773736587,0.8120165891800508,0.9559598296097949,0.7210774331871057,0.26047253837052303,0.7909953812033287,0.2917873826680066,0.6171018661146539,0.2795730646493102
24,2.2562310308748033,0.836806350660255,0.4776913132726239,0.06327813767120402,0.5550647832171127,0.24835669003259314,0.6124710565004478,0.05792422214384535,0.7054409377627148,0.29929560682897693,0.8075448405821023,0.46177555960061584,0.8117359345493042,0.3728269195140836,0.7592843820885784,0.3633146053181838,0.693631497685939,0.08625400481548187,0.6889006259207056,0.5014651325253923,0.6905059458326785,0.1377681417070851,0.6059410431591702,0.31404317583979524,0.5118353093624404,0.3478052766457381,0.5756388361627353,0.16598166818063578,0.7218167545822062,0.25249821603020306,0.7779746056735383,0.1280330237846402,0.6499168189646255,0.12424219957456759,0.4773302373380905,0.028933535930605603,0.6198497815164498,0.047671475586218134,0.7146631882859047,0.13860107102699484,0.905101678316795,0.5378950371971435,0.7467249684434171,0.4020882709371261,0.8345252740411999,0.19952211153944066,0.8313840199059994,0.9627543658351176,0.7823374616274464,0.39441464648920793,0.5259990331427705,0.056563959791720735,0.8866074419111863,0.6521057421370912,0.8534028921036616,0.3371060385159544,0.6971600245166608,0.28453773463702453,0.6524725274725275,0.4001827163439887,0.13184360965170427,0.5702546022223975,0.13554241688627672,0.6708881178345719,0.15021316227578924,0.6640927538252819,0.20749472810815642,0.6224663827265484,0.37978055775765807,0.5141507016356193,0.15768665007953753,0.4156113519215948,0.23863722353061165,0.5218680442693613,0.13024914781577757,0.818963968723584,0.9580694957264495,0.7011612403843935,0.24932747197213012,0.7750554459071765,0.28118346902390096,0.606790484163138,0.27454799389345386
25,2.229489082416936,0.8230669414548508,0.5093295863867843,0.0710457244091195,0.5696764667109714,0.2748617679200462,0.6638099451612854,0.06458777811463312,0.7358962470639308,0.34242344253382356,0.8208127514860195,0.4728876714957232,0.8309204401460091,0.40386160463687293,0.7427821541749678,0.35579623281039663,0.7093751122069155,0.08340349750162425,0.6613044490720483,0.4821909730303478,0.7611759652155693,0.221310473609418,0.61519733134464,0.339207869307621,0.5668063049020603,0.4148303981528858,0.6405802889823637,0.20126549382548498,0.7679416067292454,0.29870283139689147,0.8074410205357349,0.1564759010257474,0.6806049932043338,0.13395806763783613,0.5136642423736195,0.04167535188414893,0.6334418854214422,0.05266852094070333,0.7066691694223206,0.17323796783930903,0.9076463904375502,0.5371085703688593,0.7592636899856684,0.43877622913353764,0.835756739073818,0.19059148976294107,0.8262162627100421,0.9616891658254338,0.8009506194278826,0.4303732149923768,0.5519812147434142,0.0672115632591112,0.9025546255646505,0.7019287018060861,0.8551149540394671,0.3912386210292077,0.7176634983897316,0.3075299675648217,0.6609432234432234,0.40883230375052004,0.13953072540143038,0.6074694374481255,0.19076387054743685,0.6829328741192107,0.16512983504700457,0.6436626837834776,0.19612143902687537,0.583706923402662,0.3537896780240817,0.5319638750018686,0.1772670648990574,0.47295227579572224,0.28556368890170014,0.615620252437818,0.18916020747257783,0.8172261804129937,0.9575572011429501,0.7131322599715594,0.25957081658513004,0.7763830956111257,0.303364653462663,0.6230801965213714,0.29252901641008244
26,2.2108977523962694,0.8281047248301656,0.49572225418221993,0.07030849266310998,0.5560446290928085,0.2375442898132512,0.6201563823172132,0.06069675031371809,0.715995061988598,0.3289581512029724,0.8121187661492857,0.45194113819627346,0.8160686188148114,0.37632820915420895,0.7293901870722455,0.2919464543181545,0.6916919322519053,0.08975410298668446,0.6580627286227914,0.4748306733160884,0.7594895489548954,0.2279241267920213,0.6003972346146734,0.32483752068187977,0.5310425426927412,0.3720339021973532,0.5668732559739362,0.17597580850726754,0.7117354066244717,0.24628826865420445,0.7888870881855856,0.15349861317711164,0.6560010383803869,0.13213056595330214,0.4811380206313503,0.03130020032794169,0.5961399689594342,0.04156298536911846,0.6945922494003502,0.13847657263627863,0.8974234747405033,0.5330508662762912,0.748376882500136,0.39353135430518615,0.8199638775903431,0.1881115016336833,0.8218488413766268,0.9600962904297213,0.7707172738741371,0.3850833420543994,0.5168498306420016,0.059567812971568976,0.8726864387433318,0.6461781502308639,0.8455052587869499,0.3814347659282054,0.695367362709768,0.28790336704040226,0.6595695970695971,0.40383957770143153,0.1326531216533519,0.5839331032321797,0.17693904064605107,0.6883570204638005,0.16276535927621263,0.6209666408113346,0.1586560910900002,0.585333104688045,0.3484684198980246,0.5066693289881968,0.1673542252497897,0.4342310887852766,0.2541263704873868,0.5142675284412097,0.13618176872177962,0.8110108984422171,0.9542768405114541,0.7071458625152456,0.2626386772524253,0.7639703338962703,0.3028926987261378,0.6017931352695643,0.27790478304660127
27,2.2087741278117052,0.8365773605068315,0.535454324078735,0.0821753076972348,0.5751565048909619,0.2741923433468736,0.6235974850512431,0.062078355872455096,0.7137274310325683,0.3208624232543375,0.8113304243651497,0.46405302963716305,0.8098336424552971,0.35523535901155734,0.7528164791018078,0.32606275084679714,0.6899429217200461,0.09296977578350236,0.6536689135049262,0.46407924546973756,0.8003893341715125,0.2582921908310086,0.5929857373705185,0.3144068651535958,0.537814664224902,0.3817526724127349,0.5871514452457632,0.1790465311911801,0.7350030970870908,0.2545804037390706,0.8131674775343889,0.15364999760654904,0.6318827671145713,0.1313620741996711,0.4855907200687314,0.03793812966043257,0.6331208322368085,0.0518830225117248,0.7097271771538872,0.17028413492993388,0.9141794396616452,0.5690109330863465,0.7531154114728901,0.408021004762939,0.8330929760334376,0.20556119072119144,0.8117091921891479,0.9577697149621975,0.7830967198147398,0.3937585116147118,0.5293186552890672,0.05561032518908765,0.8767749001919168,0.6465331686534607,0.8319902015333621,0.37259546577681824,0.704653291651671,0.29569499733045607,0.6639194139194139,0.41215246949756124,0.14020377562819858,0.5811632785348154,0.16452737519684252,0.6701670348640945,0.1599115979643338,0.661786109585937,0.19012821228280566,0.5866629803446711,0.34603153386075103,0.5100194762345092,0.14407741528461515,0.444067407500533,0.2654609253194463,0.54060048933013,0.1503972883668774,0.8065956708127038,0.9553053624840031,0.697881030706621,0.24143579852015237,0.7527590697295866,0.29439439025229175,0.6058050015582875,0.27744306137821073
28,2.1897915933580037,0.8083352415846119,0.48496893161359494,0.06465758646203382,0.5351773706997113,0.23682597582715892,0.6019559952382907,0.05437850912235505,0.7257995233736003,0.3193292644711476,0.8087232226308398,0.44800122625187677,0.8091944077741725,0.3823254008243195,0.6818869525543629,0.22540754354271428,0.7041287105448988,0.09143893504195993,0.6337703178253509,0.43794258487927945,0.7608723348525329,0.2186885918585389,0.594351304354668,0.31255188578710336,0.5086780309863019,0.3448080185131737,0.6186851729900205,0.20169527224725492,0.7329303550777402,0.25766197891594406,0.769932958713548,0.1294775594301774,0.657590814367385,0.13254608448576727,0.47825966982679924,0.0354180090293018,0.5739459179982276,0.039590410802293086,0.6986603513299449,0.17780956403492817,0.8959428163492077,0.5459647009868343,0.7486070840555259,0.41486043686768637,0.8242538901463741,0.1960729880754705,0.8136695235462169,0.9585484484639798,0.7655801066391753,0.38203532713288907,0.5299282071644332,0.05269334786209634,0.8627320242091899,0.6320573283630087,0.8344661717094313,0.3573216132759689,0.6909145246878349,0.2833373552798245,0.6172161172161172,0.3873333044792799,0.1311110401063818,0.603420741474258,0.17276334603428295,0.6843825179576366,0.16918745055927822,0.5871992865090363,0.11922811495406321,0.5639743100686753,0.32400017890257293,0.5208878344007535,0.16088536616477994,0.4096907847628002,0.2361254859626027,0.5989552050946862,0.1763104831479729,0.8066707674193938,0.9535665794174673,0.6920712781337305,0.2500094179869062,0.7689553787616741,0.29734631059952304,0.6021401280965385,0.2718667067123483
29,2.201357748124283,0.8383329516830776,0.48794420764991603,0.06532453424708512,0.5276965297795319,0.23014576899125652,0.5891628924191217,0.048656154233831156,0.690736798194428,0.30322922316217377,0.7685288206249232,0.38917584837124275,0.7791352066236706,0.329852492451584,0.6993367059920838,0.2618755492551847,0.6698867820410982,0.0721475819926134,0.6289726870846888,0.44040269078280814,0.7481948766305201,0.20625748130334184,0.5750544874442831,0.31162649262699993,0.5013369588308781,0.3424958502908745,0.5384686566207203,0.1537301163448394,0.7032839007482432,0.22047873551330668,0.7515278600037705,0.11324950006949011,0.6358778640853762,0.11909025817988186,0.4617129748402532,0.02789222973772884,0.5855301027463182,0.03848990660857386,0.6615562494333207,0.12948690171006463,0.8930048890879071,0.5345358729310349,0.7363324021592119,0.4195657574731073,0.8044983622107931,0.18455254569812307,0.8109987814743136,0.9571861240158752,0.7713439145563485,0.38554544139456753,0.5126594577173744,0.05064189991018239,0.8442184111835385,0.5927229230722271,0.7913327981659786,0.33520153713324335,0.6729012436425412,0.26902071916671266,0.6730769230769231,0.38224407331892973,0.1278338438392893,0.5549392416548466,0.156590568555572,0.6458702777077466,0.14304369283093799,0.6040168727830505,0.15050411172488587,0.5598589865180938,0.324370686162057,0.4935282095745339,0.1440411190052055,0.40498614352790696,0.2363281439481473,0.4975864718767665,0.12344506468501501,0.8051231735297668,0.9542619019337648,0.66770020197286,0.2347021347898201,0.7279355810120658,0.28892369722575695,0.5767081121342333,0.2621859058818593
