epoch,train_loss,train_accuracy,train_1st degree av block_rocauc,train_1st degree av block_prauc,train_abnormal QRS_rocauc,train_abnormal QRS_prauc,train_anterior myocardial infarction_rocauc,train_anterior myocardial infarction_prauc,train_atrial fibrillation_rocauc,train_atrial fibrillation_prauc,train_complete right bundle branch block_rocauc,train_complete right bundle branch block_prauc,train_incomplete right bundle branch block_rocauc,train_incomplete right bundle branch block_prauc,train_left anterior fascicular block_rocauc,train_left anterior fascicular block_prauc,train_left atrial enlargement_rocauc,train_left atrial enlargement_prauc,train_left axis deviation_rocauc,train_left axis deviation_prauc,train_left bundle branch block_rocauc,train_left bundle branch block_prauc,train_left ventricular hypertrophy_rocauc,train_left ventricular hypertrophy_prauc,train_myocardial infarction_rocauc,train_myocardial infarction_prauc,train_myocardial ischemia_rocauc,train_myocardial ischemia_prauc,train_nonspecific intraventricular conduction disorder_rocauc,train_nonspecific intraventricular conduction disorder_prauc,train_nonspecific st t abnormality_rocauc,train_nonspecific st t abnormality_prauc,train_premature atrial contraction_rocauc,train_premature atrial contraction_prauc,train_prolonged pr interval_rocauc,train_prolonged pr interval_prauc,train_qwave abnormal_rocauc,train_qwave abnormal_prauc,train_right axis deviation_rocauc,train_right axis deviation_prauc,train_s t changes_rocauc,train_s t changes_prauc,train_sinus arrhythmia_rocauc,train_sinus arrhythmia_prauc,train_sinus bradycardia_rocauc,train_sinus bradycardia_prauc,train_sinus rhythm_rocauc,train_sinus rhythm_prauc,train_sinus tachycardia_rocauc,train_sinus tachycardia_prauc,train_st depression_rocauc,train_st depression_prauc,train_t wave abnormal_rocauc,train_t wave abnormal_prauc,train_ventricular ectopics_rocauc,train_ventricular ectopics_prauc,train_mean_rocaucs,train_mean_praucs,valid_accuracy,valid_abnormal QRS_rocauc,valid_abnormal QRS_prauc,valid_atrial fibrillation_rocauc,valid_atrial fibrillation_prauc,valid_incomplete right bundle branch block_rocauc,valid_incomplete right bundle branch block_prauc,valid_left anterior fascicular block_rocauc,valid_left anterior fascicular block_prauc,valid_left axis deviation_rocauc,valid_left axis deviation_prauc,valid_left ventricular hypertrophy_rocauc,valid_left ventricular hypertrophy_prauc,valid_myocardial infarction_rocauc,valid_myocardial infarction_prauc,valid_myocardial ischemia_rocauc,valid_myocardial ischemia_prauc,valid_sinus rhythm_rocauc,valid_sinus rhythm_prauc,valid_t wave abnormal_rocauc,valid_t wave abnormal_prauc,valid_ventricular ectopics_rocauc,valid_ventricular ectopics_prauc,valid_mean_rocaucs,valid_mean_praucs
0,5.301634834282417,0.5092741012136478,0.6080084036634874,0.04464246305780695,0.4995552991498293,0.1624434768067149,0.660226500462944,0.025078598634792445,0.672198880943495,0.1008982029382338,0.7030245754302059,0.1456166606196738,0.6367984492689198,0.10377983197060339,0.9150383558750418,0.4720236780991104,0.7654645539534946,0.05261788768406406,0.5263354050247333,0.26534233734144924,0.8963060401278223,0.1301496937140475,0.7760743689685153,0.34142217901211463,0.7531080500909463,0.40328851681597166,0.8467156875186174,0.35609453643343947,0.5151465679991829,0.036862325722307805,0.6029899024643544,0.025036072110834966,0.5605869907072762,0.021281726463973118,0.5862259783185867,0.019865312844847778,0.6263613956909595,0.0375277736113767,0.567053245002544,0.02160748977059654,0.6630742847806419,0.053579646074239894,0.5211488065920702,0.03654620284152178,0.6081744420188743,0.04155376586493423,0.7903831904893559,0.9490886097090457,0.3689441196387536,0.03173453521394564,0.6804929181394213,0.07830499034946434,0.7003506090345264,0.18868556614283233,0.8033921100779513,0.1477518161605034,0.6612288567197241,0.15899347762994245,0.5505952380952381,0.478316373778528,0.16661254791429653,0.683022505423642,0.1078495842724835,0.6358520316379158,0.09668014678463471,0.9099515430404127,0.4658436514212601,0.5170734452995313,0.25985775907886455,0.8020054969109239,0.3720448151708962,0.7577713764095613,0.4170901537074581,0.8561367209581685,0.42784121014593257,0.7928484633498369,0.9501170299831317,0.7020906232635098,0.17211989389027338,0.7742786945286589,0.1366226717438416,0.7190315704182445,0.32478904219209753
1,4.9077923200520095,0.2734142431875429,0.3058385195693245,0.024488527468765724,0.40009506491459107,0.12136593557459438,0.6206428915677303,0.021974437481925978,0.4126344921664403,0.05925944321676625,0.8611559399513281,0.28187115831476095,0.8304415258600469,0.3143471505617701,0.9136448206585311,0.3280744551265958,0.30984353080280624,0.013076823151868444,0.5102957083005204,0.2878361171872674,0.9129310073864529,0.19814882255488087,0.6732507710858542,0.3304830661876553,0.673211341520704,0.4013155614672613,0.7914798691471187,0.32384455831348286,0.4788810784452623,0.03593208713924495,0.5761313837228916,0.024041229641240093,0.414120541909644,0.01504493686797345,0.3528916257480207,0.011493021830869775,0.613285627139386,0.03840305101393719,0.5167013980213244,0.018506474222553873,0.7288479915011292,0.09531749247255804,0.5292763570526955,0.03746770503557475,0.5859898620107012,0.041189780246370135,0.7950657901473495,0.9506482244432065,0.3737832803322727,0.029785861374376145,0.6472265258018174,0.09221678936336294,0.7945050879203908,0.2974335812707537,0.8926950687299715,0.316742634018373,0.6116617444968262,0.17445588613140703,0.48717948717948717,0.3869180400611238,0.12547962596124107,0.3983269429634573,0.058360597912574176,0.7912245804899518,0.2703417166232593,0.910952710888,0.3607084420753975,0.5011126043048308,0.28220530962047696,0.6540710028338775,0.3014333222925374,0.643968608394781,0.39825079127456436,0.7907630657327587,0.32841516665924597,0.7997318786982249,0.9523382884772248,0.7898801714490975,0.26165163674328024,0.8717592121594401,0.2811642657472698,0.685337165270504,0.3291226512170065
2,4.621036174124265,0.44118769559575605,0.38258544214840917,0.02959377728078256,0.29360476099226296,0.1009237931764155,0.5868230869924149,0.021086034022301876,0.6027950158246456,0.12596954304895147,0.8399859499956722,0.3623444301396977,0.7771031170185969,0.354955230939621,0.7889046190170131,0.16258214798762463,0.4416032691032077,0.020331875135111626,0.533837227776544,0.3084905987303457,0.906998271255697,0.2681799486517378,0.6373155516411146,0.29633163044350574,0.6886883856747663,0.3723784299829068,0.8672422648394994,0.4264396365650998,0.4018151730909259,0.03199208832207755,0.6290513343762714,0.03592532960487828,0.533127001858805,0.02649275653838262,0.43581713989105597,0.015453746892877169,0.6005205664670759,0.035091630856436226,0.46575346058422107,0.01624422649731947,0.7811891639398664,0.11167408938071728,0.5548966622312563,0.04290084823223455,0.6312553066699415,0.05460455506535652,0.7927667086494845,0.9481725365850988,0.5126544052135524,0.07625468746816891,0.6101897325660264,0.09122227023817243,0.8167641030034999,0.34372366118440056,0.8669308396642883,0.3731284686725935,0.6288969837217079,0.1871291841349191,0.4967948717948718,0.2928327700944112,0.10738040156359577,0.6383393489716008,0.15243020392783974,0.7180309200377741,0.30149216141040414,0.7639851201110907,0.16602698409892178,0.522678171257654,0.29397889447079073,0.6153080640580186,0.24704525165261415,0.674477854241939,0.3865658231729429,0.8684351151780666,0.4417355869840392,0.7915257819103972,0.9465852434493018,0.8032826951334188,0.30968669350506245,0.8603831363053696,0.32897864216603373,0.6862980888454309,0.33471871694559513
3,4.415818117054516,0.4144721776963591,0.2967615170394002,0.02427786763130383,0.2946827522753743,0.10084156072127397,0.5300050779403023,0.020071172594504774,0.6788190414999711,0.14213549222225794,0.8575947100458872,0.5442308177416947,0.7994368979406264,0.4148864569871129,0.8841469673606472,0.26315259458626505,0.3988569225603776,0.014980628174290191,0.5070616299743083,0.255942370692243,0.897946880402326,0.20652063828843492,0.541733946120376,0.18554150944823322,0.6104425543009118,0.34596569878012506,0.7389954877395553,0.20134185791308376,0.37673873434570737,0.02854770760393857,0.42350017033183296,0.015570475986071251,0.5342727336014299,0.026049453497012334,0.41944383953129005,0.015206094588170245,0.43359057884424573,0.021286744298385667,0.6442033106811468,0.033581641892584405,0.7180627951020307,0.09720064443543527,0.5752000292579854,0.047123533466720144,0.7185776324788316,0.15534168683013072,0.8440468773999324,0.9641143787693702,0.6080256867550028,0.09304564666672029,0.38440849243997693,0.03664339248971616,0.7261381836396831,0.34505412046712497,0.8694543607507681,0.4293691713208289,0.6041536226059233,0.18622308733677898,0.5022893772893773,0.2891406210094162,0.10682844516093551,0.67984207055957,0.15547290708771933,0.7507039906333993,0.34925255574682307,0.8668000104583365,0.2707053008928143,0.5002458520128368,0.25806075134131834,0.5114705838385694,0.1466194884228565,0.5803126041968438,0.34064746891594067,0.7271018451455626,0.21220862100482604,0.8436307511170149,0.9647800262320009,0.7269963682758808,0.3314186055793799,0.8687987059230472,0.42057038407176395,0.6677312184700435,0.3233240504051253
4,4.248246127927079,0.6376612472330356,0.36215671149056344,0.02842145901605667,0.3159888676425487,0.10728537095689396,0.6541208093689519,0.02723454922994609,0.8300856603860962,0.31343795521362117,0.9265352598747576,0.6992855979477327,0.8878754194337939,0.48553878728944766,0.9399749899966957,0.6121852975851091,0.6233961104122349,0.03397686329478587,0.69804680315228,0.4148838588322117,0.9295883493111217,0.6831395319119922,0.732424233930138,0.35662726993866983,0.7435271770500834,0.6427502239663727,0.842561950076607,0.33969473475518625,0.38044543690344007,0.02961701897305697,0.6225899699356047,0.030548538725399504,0.5715779803501476,0.029576344231579454,0.47948051715600004,0.01641273944029231,0.49536774422127505,0.02619093325042015,0.7944713078546813,0.055874163272446264,0.7682039966251293,0.12300407886279115,0.5707388700880508,0.046458886467403634,0.7911764768158075,0.1203591098192422,0.8718686449789574,0.9696399144177428,0.7434397979313507,0.2559386817027574,0.5360203029485986,0.06180867767693328,0.8432667067317055,0.4187573656212384,0.9123968431695352,0.545768824946807,0.6987898865865243,0.27683025101281983,0.6657509157509157,0.3106115460664712,0.11163789969198629,0.8222815414385389,0.3770498952097032,0.8482702554877084,0.42656596900442906,0.9152547912254556,0.5583782085832221,0.6966536128871951,0.4353565151391935,0.7074405836036587,0.3019689042182187,0.706927416136914,0.6068613275054522,0.8392003449159129,0.36060939313984863,0.8710625226421929,0.9707213947588905,0.836960027363683,0.3982193137262994,0.9046432132174903,0.5380320758221243,0.7690278049986564,0.4623091724363061
5,4.1231461753645755,0.5340813678345164,0.4489126064758219,0.037294357199820216,0.3203360772370154,0.1055124353070155,0.6214061029544795,0.025432728710527402,0.7626433530198644,0.23028378698907237,0.9065887324198817,0.58752627974387,0.854107958778815,0.4308548277520862,0.9233271564962922,0.38455603467788274,0.48551656756761863,0.03464124911550294,0.5506527379049693,0.305128309420421,0.9548177484415108,0.7704394211638647,0.6158898271744817,0.2699371194604516,0.7107856558826096,0.4154065109588577,0.8379644001618964,0.3231782713939003,0.3668016150979701,0.028922485665132766,0.622513072554746,0.034913918404576146,0.5636974149142914,0.04050179939857966,0.44103314857794035,0.01598277022168033,0.5012193511610454,0.025198534905310103,0.6190877080977634,0.031143978900744475,0.775104074895281,0.1447760385800097,0.5817748727909965,0.050190183877716454,0.7460103370225055,0.09343445980820723,0.8557781259279738,0.9667515886902573,0.723292809956665,0.22139866264125316,0.5012462900276786,0.051498936410133256,0.8621993249660118,0.4223075037595715,0.9059846888360088,0.5421503461699196,0.6688404355311901,0.244050464419495,0.5629578754578755,0.3083422137531676,0.10975531939893292,0.7557220320658634,0.25977016162184147,0.8073501322519581,0.35945666883483446,0.9051160149089399,0.3955180838554855,0.547715705248226,0.30773342008115906,0.5750603827336347,0.20320749250789252,0.6811323771365477,0.3995544168762873,0.8343724606062746,0.34317720029594656,0.8563466066900134,0.9674521047656873,0.8615837915152463,0.4011542993421137,0.8951116039636193,0.49852533775416075,0.7298048473521355,0.38593677321221287
6,3.989446428784632,0.4104266849858789,0.39799248540553966,0.028716321286810013,0.27484700596483075,0.09793936970708542,0.4787041978146612,0.015870983069970944,0.7657976162845713,0.19182953014366885,0.9253474004472652,0.7090372542996559,0.8750824178073516,0.5082049072278912,0.9396816004031995,0.6174994222578026,0.4569257730387176,0.02293570193377482,0.5809680340539494,0.3159368092683155,0.9647558279637486,0.7310839383674389,0.6094533748775508,0.2651428570239835,0.39965708625277674,0.20079892365452223,0.5066705782719565,0.10773050317633878,0.3583966478974403,0.028574568889278673,0.4197384827567959,0.01705190806695456,0.5598929479267851,0.03901710609532385,0.41381578554850873,0.014917158447381115,0.405266760092136,0.01981942919107399,0.649222684557623,0.02991059407414918,0.6477938935722545,0.07640758477387569,0.5757310138404627,0.059326388796271654,0.761239765140816,0.1706152012834093,0.865115555145967,0.9684760815400573,0.7126746806843063,0.192503793300396,0.3933330296545013,0.038509965593105475,0.6964141890155086,0.31229417606728516,0.920939965772511,0.5732958428295265,0.6131651407478421,0.235312826680198,0.3940018315018315,0.26874353464494505,0.10339951015493751,0.7603639202028971,0.20400714014481583,0.8169683108070573,0.40983234644899635,0.9148531620490203,0.5797763918621174,0.5788776666048392,0.3169609244777754,0.5659976338083513,0.20237507711505465,0.3725633653462478,0.20454913376839395,0.5119892506359525,0.12332297425870822,0.8637785291631446,0.9696197603579593,0.689065356239766,0.22974158635408892,0.9130659043278327,0.5172760018233898,0.6596606030754594,0.3509873497060216
7,3.894532439563304,0.6716281199908404,0.6276426105943034,0.08260371847482226,0.4343495109038121,0.14769160639092904,0.6745085876484425,0.03692221991901573,0.8799015241944145,0.39007399945291965,0.9576023590453779,0.7713880330408321,0.9346225107895687,0.5419133568213578,0.9527408356488484,0.6916985573274504,0.6243013249392587,0.03930110624998514,0.8044565681435295,0.5802391855575801,0.9718082665409399,0.734247601027524,0.810438279691723,0.39830323708497783,0.7206917486631976,0.5798066273527714,0.8281710384477182,0.3561277621997132,0.3980782409863234,0.03152299783553764,0.6564281249276502,0.04202272508822892,0.6349162561832754,0.05489024452076051,0.5251355088330578,0.021586932839315415,0.5266669425414765,0.03149317901731169,0.6966352923016285,0.029445798561191006,0.7972036132403673,0.15581203603502033,0.5987228000712308,0.05762556954413775,0.825108039035917,0.14487382042116415,0.8504570392897737,0.9657610268522934,0.8008636370457966,0.3776395552947169,0.541381726398362,0.05903736006470707,0.855447067712512,0.4698562190697548,0.938708881639253,0.6857105038583681,0.7358143827947318,0.31398499925564394,0.6650641025641025,0.4109702331446512,0.14422123469494114,0.8579009767738159,0.42671010905761236,0.8957848160223567,0.48039022176579627,0.9212901229726077,0.6089436394128399,0.7958547542471446,0.5714601899272072,0.7834454142223493,0.3067115417501889,0.6755036977922568,0.5320083048170698,0.8209561811051441,0.37784883729973306,0.8461836583745925,0.962934783803547,0.8437684005086901,0.4093579611603305,0.9192351516877939,0.5955155492768422,0.7973539460774002,0.492372942996919
8,3.812026544887868,0.5852225020990764,0.4831291797684499,0.04148668714171458,0.330423581353777,0.11346224933361718,0.567228356799803,0.02775559227286572,0.7696050484256579,0.30755658125905067,0.9496479027986615,0.8100089266362779,0.9035709245869236,0.6020029699307822,0.9620307073556004,0.7399829125775023,0.4624213134240731,0.02168578733109754,0.6447107714410065,0.43872137276020307,0.9606554560217927,0.8224135517700837,0.7802625994838445,0.4440269610719126,0.5543625840238389,0.378887791104525,0.7083829129860397,0.2369576856709589,0.3866766772868199,0.03109917293524035,0.48859884703539924,0.019183136985881526,0.6062973606530606,0.048166435050375496,0.4920022194512228,0.020625016523676175,0.45788356440173444,0.023213965848588165,0.5279162161331826,0.021176338662993874,0.7860293541881987,0.141548249264304,0.598321528169185,0.06134518074941255,0.8054264074717913,0.1823373763389865,0.8669554265351886,0.9697570208431122,0.7335853678481875,0.32853679491062243,0.4132852555325719,0.04092383596841317,0.818741929820672,0.46099223122100674,0.9230712777834813,0.6209742024916987,0.6659712137325988,0.2946232602464779,0.5581501831501832,0.3142335096160032,0.11228311650104425,0.75242120470631,0.3190413954539464,0.8421511988137919,0.4840732182488125,0.9330942441382476,0.6689283576538648,0.6294076920474603,0.42179571047832903,0.7537876684683608,0.3381170750621002,0.5105183468436214,0.34230998176881966,0.7062694318824194,0.24523035021464984,0.8588032846274605,0.9684565457566285,0.7979650036009518,0.3947811171322515,0.9022229230675322,0.5578890726371848,0.7273522279829234,0.44117326735523915
9,3.727179656692265,0.6407907793298222,0.6135024907007303,0.1357190273693715,0.3746248707212294,0.1257070084915867,0.6801425928206438,0.04088214731820336,0.8455601563521287,0.43585237885771483,0.938122319914707,0.517015214546293,0.9233920159359555,0.5692678157511111,0.9163323373016592,0.5158735794332924,0.4720320522794461,0.02156544753742529,0.6653522755873531,0.3909337631934941,0.982055424590078,0.8877178685315764,0.7175462540865584,0.3601268488381064,0.7001425162769529,0.47593469197728094,0.7993470045830566,0.3273147515840581,0.45522378101617406,0.03698726786699319,0.6237336737765048,0.03184917712749581,0.6025107855581847,0.06554225269816813,0.5689096349241389,0.028887309039148934,0.556483507490931,0.03151171248102613,0.6517666532536949,0.07232260819458645,0.8079153360345406,0.15102908725142739,0.5969220325959934,0.07499793068221387,0.8097977272101686,0.20397671782773433,0.8787356413643391,0.9719803196283623,0.7704626819547391,0.33418069538040407,0.5310659495633344,0.060058338971965414,0.8858699136524516,0.5184415072258699,0.902312841908233,0.6477856167683407,0.7136986100538493,0.2975355957249352,0.6426282051282052,0.36180292603497344,0.1264008775626527,0.825516192790642,0.4569513516221702,0.875356268400969,0.42369759564430387,0.8865619089950411,0.46273798223735274,0.6449045347593333,0.37953215230223003,0.6692665232999404,0.2594636506553325,0.6547456367144583,0.4290488906166993,0.7934092796071227,0.33168101889604845,0.8699002234029707,0.9690526202432482,0.8541534626835464,0.39481608258613005,0.872480517630781,0.5701492753804698,0.7552815885745253,0.43668468161333074
10,3.666886734549357,0.6865888100145027,0.6199072197634814,0.12127907332776208,0.35933244361452343,0.118652044495343,0.6704428146384551,0.03689152299942345,0.9447005259445242,0.5989568245568864,0.967032854130225,0.8387404425789786,0.9305600172613834,0.5865853919243054,0.946540224785051,0.7137331327518159,0.5490063113043467,0.05208965801116032,0.7803149229667508,0.5077071584612299,0.9769494473256849,0.7537261355336269,0.7068023492546827,0.41403078099159835,0.7369782811379939,0.5028367196388104,0.7961945334592527,0.34025163670593594,0.44694121465119885,0.03643657963427859,0.6647208046277341,0.05860935257209516,0.6959907196379461,0.05446613738994358,0.6134989022069222,0.03431676698072593,0.5185285581573547,0.02707798288323441,0.7708880811132617,0.0899435195036916,0.7810614537638316,0.1312264438741764,0.6155939934996687,0.06936221544734125,0.8773750060874519,0.1978672114600893,0.8638973776098465,0.9691847667320609,0.8839177232422745,0.4664901327071717,0.6031305820733295,0.10219195145541408,0.8547707155324327,0.5160302763662352,0.9300954066049705,0.5511251416346511,0.74463601794054,0.3292521852080736,0.6696428571428571,0.3507518235566832,0.12325882478345734,0.9219521762737486,0.5871124656742427,0.8743990975246022,0.4182150772487498,0.9156796611498941,0.6264203162434409,0.7697285303824093,0.49858102342898825,0.6449917033803654,0.29778630740638284,0.6887609526256238,0.44332509673613774,0.7924343732334652,0.34715093994031887,0.8525359256128487,0.9648619993215728,0.8195594707399735,0.4106682517443438,0.9074419598347814,0.49311764493397003,0.7762032431194906,0.47368163158741866
11,3.5655542899612143,0.6728494008090985,0.7380733187770071,0.19027591470549332,0.5375536311535676,0.28868795530020486,0.7493949041196691,0.06602128008592369,0.9060511606715215,0.5252501885970892,0.9622781454665251,0.7904321943981303,0.9525263797186453,0.6735498708874732,0.9602147765185155,0.7893083799645945,0.5845263750032283,0.03465225831320026,0.6719571305129237,0.4924598111188485,0.9813509350935093,0.8096975604992219,0.8584957875501108,0.5609414094306664,0.7793556482358681,0.6850958545463695,0.8610559063458838,0.4695704000077878,0.4767551258438738,0.042021291943082115,0.6440196989591567,0.03386227078566158,0.6755480937326978,0.08724332003971474,0.5965121950491918,0.04435088175862087,0.6296573634861401,0.06036378824887237,0.7244136320754363,0.1095330451580441,0.8083893975638966,0.1558042439052951,0.6575036649386454,0.12031569043307337,0.8140500504993828,0.19125402944209605,0.9019515661638968,0.9779673610301352,0.8308410124381743,0.5148096644421477,0.5751240431483736,0.07248814331646361,0.8827834876116943,0.5096577953912433,0.9456734285970946,0.6996040158282186,0.7668909947879492,0.37019328220658054,0.717032967032967,0.49386753883892076,0.2333143287340163,0.8673298618834967,0.5006431102286063,0.8770238395371395,0.47476776782385927,0.913336703241794,0.6744898618341717,0.6487089707112386,0.48170382744093865,0.8136170271834419,0.39055489764220863,0.7212720077399466,0.5974128400409844,0.849150075960995,0.4604312491393036,0.8856810771645938,0.973434866420961,0.8352237590622968,0.41052332070150976,0.9030988666653101,0.586048822601206,0.8007554298171975,0.5257568084188877
12,3.4656703818363956,0.7108617662773834,0.6808058332080357,0.15067475892128962,0.44081639402040107,0.16507244621846,0.6900217712889607,0.04669547940140913,0.9185740443724555,0.5898646262985168,0.9344700903990966,0.4638218950782679,0.9174371035938258,0.42254750331583973,0.9116534398818843,0.5846312910192246,0.5364155142557114,0.03511562901678941,0.5782965198258414,0.34533916667082004,0.9681682644454922,0.8226060586793686,0.796225256897481,0.5219040978536684,0.7039214954579434,0.5158737411575814,0.7640935672905199,0.3047292049186764,0.4751350857135327,0.04199615880938118,0.6735393631904641,0.0431187333005842,0.646698230133981,0.08409537020450508,0.5994737006962634,0.05361051046753202,0.5674764987209018,0.03601189947429349,0.5845331948575115,0.0375542263228551,0.815037953735527,0.17129117898130225,0.6099931059162996,0.11106417801380065,0.8388506467520535,0.14388596796181144,0.8542760421466532,0.9669938028740275,0.9122716827323739,0.6108137898056526,0.5751160123353288,0.07015715131072144,0.8772865383267234,0.5475935805746552,0.8666967516884584,0.49834482505282673,0.7310105222919895,0.31057063969273563,0.670558608058608,0.4130438257979413,0.15305869259219812,0.8905943163579916,0.5888771938845895,0.8372083085850536,0.2758570549476873,0.8536515572753709,0.513500671292929,0.548203909601119,0.30944645208585564,0.7279643063833785,0.3523809714227873,0.6440611215269996,0.43529238025404604,0.7562623657433578,0.30313354386824487,0.8433164020045888,0.9642948548337309,0.8281233448788665,0.3801778487383157,0.8220054123344253,0.3889108248522005,0.7422213518626447,0.42408458988841685
13,3.416683841612437,0.6212502862376917,0.6283398106805954,0.08279771209550525,0.41451704894223573,0.14160265797712704,0.6678215560086173,0.04395344615353634,0.8513632860566085,0.39487341473309506,0.9419067295092363,0.7519957736885295,0.9166681918074894,0.6047250814875832,0.8881493782615302,0.5736648381089079,0.46371267722393317,0.02346136137561934,0.6396065309356386,0.4097994143396799,0.9753487348734873,0.7930359613145744,0.7084797560457459,0.37844427658897223,0.6937171215318477,0.5394481738301082,0.8097278417689985,0.4126318076572381,0.446345519602255,0.03312656116931459,0.48899375229451864,0.01729268939977302,0.6376868970838817,0.0587293400068318,0.49461656295306333,0.019608531263661248,0.44690115095590616,0.023048490564938948,0.6709955347542091,0.09398070810019996,0.7673202794946101,0.12641868217219585,0.6159542495343844,0.09475161971216128,0.8461674462133932,0.21893038803338277,0.9011622072722432,0.9772382005620438,0.8044507414788659,0.43628496892672164,0.44112176503052236,0.039213284544941614,0.8392327405265456,0.4638577952071878,0.8725187018303548,0.4929223073546169,0.6989935634322487,0.3054013883840166,0.670558608058608,0.39251416675537343,0.13628569682447642,0.8063379074508604,0.36885084423144965,0.8126327326801213,0.4209043116665502,0.8363401051062828,0.523241679320296,0.6160080282493587,0.3875515942677438,0.6296376181761104,0.24256710310065407,0.6278422165982498,0.4416503383522663,0.7898348069177501,0.3822116082911691,0.8824126766091053,0.9724571585504181,0.7917608328880225,0.3047211817019062,0.8117077339410341,0.3914448261196291,0.7270026204883882,0.4156260311296872
14,3.308199311474718,0.6241508281810548,0.6927013806719009,0.17729588128799276,0.44838842658845834,0.18924667652818272,0.7377498491061152,0.06390096870742991,0.8797129119954988,0.5621931002141806,0.9529544176662366,0.6695839792519332,0.956431623200956,0.6861805560361574,0.9517629429511909,0.7872187976391476,0.5605555132100217,0.03435064121303624,0.7408870359868386,0.5450514427434952,0.9847669338362408,0.817406976270891,0.8271604050364495,0.552036985188408,0.7178551350407779,0.5671772783265745,0.7324215196619945,0.31938404386269525,0.47779956904362614,0.045345262018131,0.6691305800212336,0.04554284582766936,0.68094802958213,0.08314470051373894,0.6229252307453657,0.0637982296397462,0.5850491041662986,0.03747550495255715,0.7393203894407689,0.1089145707990569,0.827193047278358,0.1930284021290411,0.6434059986389569,0.1854207854560403,0.8152988780032311,0.14879972944708203,0.9023025425204025,0.9782581696366718,0.8719524390135586,0.5300809827703665,0.5862226926025943,0.073043642992358,0.9008961606468247,0.6330504185052371,0.8855411201940352,0.5327984507960242,0.7552345880314837,0.3566566304723646,0.7110805860805861,0.41621816159907604,0.1660104028536139,0.823405736263894,0.5098664691054866,0.8593877524858667,0.43009889665414314,0.8877646177042209,0.6340702777068387,0.6985933065258398,0.481156702750473,0.7481052314618066,0.36199341909004157,0.6409695157613954,0.444919863993717,0.7241754698982475,0.2993972429987437,0.8833111943002053,0.9728550131778344,0.8443187514017675,0.394265915496512,0.8189187539422549,0.42547623517310296,0.758651681031325,0.4654645853636825
15,3.21109703786227,0.7462789100068697,0.6952411109440475,0.17703042678409325,0.4246773297019759,0.19813398584535324,0.6994007574340894,0.06816222607504914,0.8502424610272865,0.5176897554360157,0.9731466860038741,0.892687846555717,0.9413128620905057,0.6885605907979504,0.885829317488843,0.5788415162657637,0.5415412836408143,0.03714584564706884,0.6697314879223303,0.47250394307224736,0.980979621771701,0.8237746237659567,0.7149433783002277,0.47308017828627946,0.7079358781941018,0.5470225368114048,0.7821009995632003,0.39420009030840364,0.4976630171558856,0.04845189699830557,0.6775467916428257,0.040504862189320257,0.6538276613864981,0.09938396546875661,0.5978706394048052,0.03538640086369079,0.6054593455071617,0.042105117091076665,0.6980916113475242,0.07182360886024428,0.8321728119526556,0.18908201685147832,0.6360065652731639,0.22828048689279712,0.8410465758877622,0.2516117788649802,0.869022537605341,0.9706148868197928,0.8189238135404004,0.4112284673462873,0.6070721972725779,0.09682906881962326,0.9087643270960896,0.6476454591569103,0.9111955811339987,0.5981712329859175,0.7415461722329515,0.35555380795779573,0.7023809523809523,0.3903487480265192,0.16103898194306154,0.7959777744291124,0.4492175076532378,0.8500403806463468,0.40302277572612405,0.8201122528128568,0.4823007984460044,0.6174971390175018,0.37899620453004057,0.6109776984301557,0.2573406463569293,0.6444303541462828,0.4526973759883836,0.7685673844686263,0.3400207059617216,0.8456802469508513,0.9638310922934591,0.8351906196536814,0.38338312959351484,0.8247665167762019,0.43748231890469746,0.7275990104871034,0.4281210488542886
16,3.111356980135837,0.7355163727959698,0.7172589707718557,0.18177096442850446,0.44648132972190846,0.22318620600055553,0.7023849975750555,0.07141197961261249,0.8306009026037234,0.45991721451584455,0.9627120919946511,0.8343353158180663,0.9267389374713132,0.6429587071005403,0.8941963669532654,0.5870999799220676,0.4509946335959947,0.01922105979909446,0.676814583987484,0.48685164238463635,0.941871444287286,0.7399109910602947,0.5801707379803058,0.3294112452167479,0.6972648295161089,0.5862937224259234,0.6996518292821391,0.252777058441649,0.4601558922081902,0.05482363547500882,0.582797146363002,0.02698207412849287,0.6941472040827347,0.09147140025253407,0.6136221429040207,0.06838406084472307,0.582999106351599,0.038628613402963655,0.7340398747423248,0.07586811137336809,0.8300948733220137,0.1858992348319582,0.6398642784950048,0.23062735389390077,0.836155652437204,0.21539884759819752,0.8697226062114091,0.9708911490617639,0.7944428671230791,0.4863350309037774,0.48712265710903363,0.061197294352517945,0.8973541795365119,0.6522494642972001,0.9300479702750665,0.4875153444881231,0.7214706706260108,0.3356080630233729,0.6907051282051282,0.4224985972640899,0.17798735131083837,0.7589511023089048,0.4128072628392289,0.8332311354012213,0.36468215438612106,0.8291834072679629,0.49465174984037513,0.6239531603795044,0.4002079306050189,0.5014858103245399,0.17162280422344045,0.6327652270876265,0.47633100544203844,0.7043372844827586,0.24829944817325228,0.8532521736505253,0.9670053992438894,0.8108952907125031,0.36452947230474275,0.8591470486499685,0.3770136444062027,0.7117909306845096,0.4050125657068317
17,3.0163296859561557,0.7388748950461796,0.6983374899489438,0.2012216717393682,0.44392671779378723,0.21551529822994475,0.7525089434083317,0.12569090669432473,0.8825107355802828,0.5757129416462434,0.9767793736677154,0.8394415205670741,0.9654212446979281,0.737978081428649,0.9023082798778131,0.7190663830661216,0.5781860937126961,0.04701322297525393,0.7285215454650831,0.5505061114785095,0.9718132956152759,0.717778773864626,0.7646211868624282,0.5092833478988612,0.6999810255875009,0.5990479429355545,0.7346335023983906,0.36405152003592567,0.4938873714626488,0.05073438315630525,0.66260009062315,0.04737878119538464,0.7074965078278657,0.11479909454401313,0.6286845425961612,0.0756469376468652,0.5786854627303981,0.046223459920224585,0.8277980471012619,0.1515395847398161,0.8484954775174158,0.24857473229049987,0.6757102666475715,0.2541165483527494,0.8700865794449515,0.19374932705689424,0.8764645757175479,0.9723695590570298,0.8890769423487509,0.5993225780589274,0.5685258744897143,0.086646817045294,0.8951825485798581,0.6412500089856904,0.8896310713919058,0.47594938485542454,0.75969906641094,0.37631884886909533,0.7149725274725275,0.40062605497632986,0.16713242546955104,0.8173948818040696,0.5032294806663138,0.8450910807912042,0.4202517561818097,0.8183684704392211,0.5728806957865606,0.6796784500649189,0.47145755023803215,0.6633900180027037,0.2973326663069603,0.6179636725390414,0.46288342306369046,0.7323125706613907,0.33755354257285164,0.8582277955560923,0.9683758969177688,0.8180912765832796,0.37938737701372277,0.8206614849329562,0.3851399895263536,0.7338005233046553,0.451420436703965
18,2.9087168492121456,0.8023051675444622,0.6576675666311474,0.1576711332118172,0.4551117154313211,0.22986566896250687,0.7260933915320024,0.09091809089146397,0.8121990432101522,0.433985132001194,0.9144520213152121,0.7161492614172433,0.8640861123405885,0.6124616034880401,0.8937007328553125,0.5416601983049075,0.5349924943416218,0.02892918058330648,0.6931775214235805,0.5020186917338809,0.9710884802765989,0.7780331547886754,0.6598719643412134,0.452500036822214,0.7535392554329088,0.5992086381331331,0.7897455942679064,0.3872001502232245,0.5485708096246924,0.09236934883315823,0.6735380402247719,0.049284126986502766,0.6838307387920304,0.11177014095968889,0.5969991915708583,0.05274287827942262,0.6221078478324145,0.048142248903598236,0.6916061771606312,0.121496860045643,0.8471341395825616,0.22413018513087016,0.6758064830363499,0.2881636817019122,0.8786176932051333,0.2591179011827823,0.885398969885008,0.9746553464443296,0.8474231009893022,0.5151440232346598,0.5364893814220174,0.08051804239180693,0.9175426150406871,0.6976825052818493,0.8802361572997867,0.4785562420199916,0.7411491570024376,0.3527546100725119,0.7234432234432234,0.4118229874005267,0.17890657396475007,0.7499990033733818,0.37242257034502985,0.7530712793186993,0.3584499259869478,0.8312053523442652,0.43037453409200477,0.6303715602591158,0.38106967694089067,0.5563796413553923,0.2535253872306779,0.6769261042815679,0.4701002250201387,0.7876669375353307,0.3378082152623782,0.8658265155174496,0.9678144180520842,0.7943788461686405,0.37161467145862676,0.7899098622499847,0.36313639087417937,0.7134143718003959,0.4077475081116098
19,2.7854874569826857,0.811846423937104,0.7125199386803861,0.1963077958914008,0.511985359504838,0.2634368428229518,0.7566454122937847,0.09822512777222578,0.8667160820296241,0.5903289147594883,0.8946716415356776,0.677452561184329,0.9029927356739909,0.6836116361516363,0.7797122098170406,0.4929387860197665,0.5841292018930764,0.03459437599779476,0.7431905925367968,0.5594083954246509,0.9537599664728378,0.607878599792558,0.7067932516218375,0.48712827785497304,0.7129401799166253,0.5954387717345416,0.7044078359450033,0.26264855233813,0.6183503233820191,0.13640472418096894,0.6516429580189913,0.05259927347992045,0.7212586263320515,0.10320992807469487,0.6090913226616709,0.04055185695315966,0.607468194579153,0.04731836058251693,0.7918805061561045,0.26531785225816085,0.8589272040132351,0.2859416893295715,0.6720769443999156,0.34973435019419097,0.8949244414895307,0.22222087067027807,0.873980237356516,0.9723803177248399,0.8861619605828923,0.5412909854240059,0.5522127917949842,0.10021920687222866,0.8943151484793161,0.70558606678343,0.9105038586131543,0.5225964238841511,0.7545651453992982,0.3664729831169098,0.7582417582417582,0.45937251791778233,0.19741141440445015,0.7878971258085632,0.5099553615256486,0.7941025027454567,0.4108813775848084,0.6825190356251616,0.3581331587814375,0.6650343609539174,0.43777882074192964,0.5942339027426895,0.25298607580475824,0.6290778203523424,0.45612694387005576,0.700969827586207,0.2542744374307223,0.8553518596787828,0.964605672963537,0.7630224560917631,0.3480505052560088,0.8246230695668098,0.40843319116878124,0.7051094980972251,0.41805790541201254
20,2.7402494732691727,0.8294786657507061,0.7193796618922789,0.19586245945798528,0.4546753500323225,0.21880294809668394,0.7486628597317814,0.130285589610507,0.8903718258408375,0.5390139626589964,0.9490286022258589,0.6703622397511989,0.9525959743025009,0.7323260774642697,0.9210020853578115,0.7029470059386385,0.4993514833990459,0.02713758288157235,0.6880200943378716,0.5202690604920308,0.9739208968515899,0.8266756881324009,0.6647675358102499,0.3594703882723381,0.7163474190197057,0.6231969524792368,0.7364838230520674,0.294200865479163,0.5770241441002139,0.14774098765652105,0.6796514646883919,0.05740139612500633,0.708112314241491,0.11755614463118348,0.5940367536946106,0.07836150800848071,0.5790174424173328,0.0458727069468514,0.7682099826980157,0.20695189845472672,0.8502749455176694,0.24884083377870844,0.6861925551415612,0.35668871034026906,0.8727599765394901,0.19327269610854145,0.8645880256811969,0.9707094913118932,0.8903979107076843,0.6016292404216348,0.5550340427481495,0.07605971494006633,0.8920540302812602,0.6885405407714092,0.9216053920669955,0.4921545160530659,0.7538357997177033,0.37490115578753264,0.6994047619047619,0.40385400472816557,0.14781496361902952,0.8320923338683224,0.47583347004942933,0.8282967913410222,0.442269620076791,0.8348556023275608,0.5529961458923942,0.6291860461046892,0.43017149801281285,0.574485385349686,0.18295581655588092,0.6273013495711872,0.47976509789637617,0.7394427466082533,0.28175023275412203,0.8496539518174133,0.9656149860183967,0.8072671172442688,0.343088948423657,0.8385700042728956,0.3767414605422907,0.724091393930315,0.4253638399855619
21,2.6688095233375067,0.8344401190748798,0.7291134968523034,0.18689408043998565,0.4964682149767219,0.2897784996835153,0.7532466890764989,0.13607234974654195,0.9138371342322663,0.6445028543498961,0.9726535268261819,0.8586167487970462,0.9419162760299395,0.6638623167924245,0.8473101045223301,0.5872719240220975,0.5431208420447895,0.035792572292588386,0.6962803531822579,0.5413175624947085,0.9717902456912357,0.7745498530004915,0.6512418760597513,0.42221159611904263,0.7305464530621371,0.6482169930962554,0.7332655982218114,0.30830307870356766,0.589223537202935,0.16203435904888744,0.6926370344401044,0.06723234922227424,0.7392466472219745,0.1174693174186428,0.595112732609824,0.03827427016730564,0.6299574935812611,0.05927002069360769,0.7819890013630277,0.19606882297960826,0.8499095266198176,0.3037877304266618,0.7343426198953616,0.4022216096423705,0.9099919963242379,0.2364727594017641,0.8493703191718122,0.9673248599689782,0.9043948767376953,0.6205894348189739,0.5535399823901385,0.0948131059705577,0.9173237053410132,0.6889998475860291,0.9325011389302397,0.5974198239262827,0.7651974600965801,0.3944210644744483,0.7023809523809523,0.4353070675664452,0.1874234679990946,0.8384842983469553,0.5443500227024276,0.8479583203360352,0.3475322912553809,0.743010345037955,0.4617161146434744,0.6293371153130516,0.4458477411487204,0.5319254350653372,0.2061716660735356,0.6397328187945143,0.4848935739176322,0.7381879548827022,0.2910678620192373,0.8374388660789759,0.96231010550372,0.8032542899260339,0.3514015384929094,0.8470069383685679,0.4508116985896336,0.7174221317924159,0.4303205529405242
22,2.5765938235188193,0.8258911533470727,0.7597340801077342,0.20962999938738072,0.49127396045825045,0.2721577843435169,0.7307072476195254,0.13624939164696434,0.9010552620068666,0.5771920355366783,0.9223859292628579,0.6883178410698553,0.907568880577139,0.6520479999381028,0.8662192685946439,0.603355513243298,0.6052198499624244,0.043345017262153465,0.7262449391622104,0.5442892372503791,0.9578708156529938,0.7870428155917911,0.6245674321464119,0.40535535533349265,0.6439448520487325,0.552938000988727,0.6761255939206041,0.2630677280139316,0.5811823129968929,0.1640762323151231,0.7093814804647578,0.09418940201651263,0.7490313979944164,0.11623017533870852,0.637024637698453,0.05820140036691444,0.5903031244217091,0.04795088584092966,0.7909468434181649,0.20846461333677077,0.849422583904823,0.2817604494784678,0.6863683252230152,0.3921703452962454,0.8865063955297989,0.2285444850557135,0.8592925588015442,0.9693563159458568,0.8929758357429597,0.6238399576488824,0.510836528982546,0.07810101961364128,0.912278506344996,0.7416221959903734,0.9175199667991523,0.46257397254166727,0.7550366151793932,0.37785445075526214,0.7213827838827839,0.43098051922479297,0.16882526930390887,0.8182479941892682,0.4874865739386313,0.7868361229451806,0.3498409348406245,0.7697074280335713,0.4605593666123865,0.6462545335344478,0.42451099926051716,0.5055193342202993,0.18268407349865787,0.5529303568793148,0.4045493207284885,0.6682707170364612,0.24212167851077265,0.8473214285714287,0.9662323705221914,0.7779848990816242,0.34705331947198215,0.828962093311901,0.391266336245595,0.6939104933662082,0.40228456753943237
23,2.506086630517677,0.8455843065414854,0.6733714837646845,0.13286867980114506,0.47930660824602633,0.2499780003374763,0.7730415342069215,0.11672482654958838,0.8683623593134405,0.5638483964530461,0.9081414289941364,0.7069618530926429,0.905650935722057,0.6795356316871103,0.8020505989434839,0.5861059894701575,0.5763973973664998,0.03998864469104796,0.6814775446192898,0.5358664837749145,0.9272976059510714,0.6128939555473991,0.6711572397978653,0.45234894169483597,0.7341457685682673,0.6142515042590123,0.7670674781967521,0.3488831741624625,0.5910075746842783,0.20369125341812874,0.7036900820569472,0.08782313495947187,0.7870946103763868,0.10560932321869554,0.578422101438467,0.03582952948624958,0.6030187833548919,0.044316185818238096,0.755128963102338,0.206500306092682,0.860588029514186,0.27502388750750234,0.7419601209557927,0.364885725420324,0.8987378330365479,0.24227447898565493,0.8543960515671879,0.9680535502303501,0.8954526897004589,0.5885379430217672,0.587028341134193,0.1103131163254201,0.9099888073540717,0.7090269188162144,0.928740148368007,0.5353148934371582,0.7578785970494167,0.37472060475032204,0.769459706959707,0.4050196694963135,0.15307395278254593,0.7893474168634009,0.4834911061187909,0.8001051178730296,0.3891168206551904,0.7198683702134953,0.45404675973822617,0.6055189256471187,0.4264891371620237,0.5557918306592663,0.22552770805306996,0.6615675578172914,0.48597392542986306,0.7708514587160825,0.3390124278583453,0.835360312764159,0.9625720405834299,0.7810153796444733,0.32861689633568647,0.8428347610230533,0.4259726537358985,0.7061164364288803,0.4248994025866427
24,2.5013607388261203,0.8273414243187543,0.7274956854003097,0.17476172729713169,0.47085301111378386,0.23127492180585238,0.7517616956063654,0.12103157438026751,0.8990607495370387,0.48670571940690843,0.9610010477116407,0.768348647929433,0.9357410811771454,0.6087871156310642,0.9202897420471988,0.6905235607971245,0.647764460282374,0.0496092251257688,0.8015082176024931,0.5876005145373668,0.961153963015349,0.5048511657816823,0.6988705657645748,0.41629355860272843,0.6229146068790369,0.4906731172005275,0.6031331023326704,0.2514871646025626,0.6424675711918184,0.21742912064420655,0.7395288919170104,0.08348033838994247,0.7754451990847159,0.12587839206979273,0.6182924246311355,0.057814589824145154,0.643519840203391,0.06186443615366154,0.8181272194159888,0.2445116193655534,0.8587609350249268,0.3104454259992504,0.6963108278129964,0.39684652304707096,0.919220467389256,0.2499627314663422,0.8668913668991082,0.9713060109092284,0.8926165740028651,0.5904331015575147,0.5950905533414501,0.11082673446743586,0.9299354445571565,0.7414554244770596,0.944593048996458,0.5184072979572157,0.7756425293680836,0.37268925034914213,0.6856684981684982,0.40351418976063225,0.15222853965624347,0.8347688743142213,0.412272070007747,0.8375608380372869,0.3194630465842127,0.8415975980686938,0.5427470373653432,0.7252797696748687,0.4485288215638878,0.5774570059987656,0.19507923405581637,0.5270952789605733,0.3483321508095994,0.588217985973714,0.18483301841372574,0.8543869248882985,0.9661708889251109,0.8093359631821169,0.3542458276848087,0.8665686613628502,0.4243862641949172,0.7150711900201837,0.3952988090237648
25,2.3871022958208084,0.8360430501488436,0.7328841954905896,0.22959934170057258,0.5158002101077312,0.2748426288057615,0.7957774797908619,0.1371999179661279,0.941020628103236,0.7197368836806943,0.9301948280686074,0.6349735697697134,0.9306190161300498,0.6840988386767456,0.926529433764184,0.6839610768054458,0.726474658717745,0.0776462524255475,0.7543774924516593,0.5947792004457191,0.9722095447640002,0.7930010528628904,0.7484867808935941,0.49465803041476336,0.6935629250811555,0.612848849852324,0.6097715885213865,0.2530805400563961,0.7133302417375318,0.26495879217907164,0.7949991896835136,0.12007620424073157,0.7526166079704153,0.10041921199226372,0.6314920439833183,0.04360881114975336,0.6179892539012263,0.05827834275423594,0.8365217241438739,0.2273213653343945,0.8729578659807548,0.3329403122188548,0.7039153405154396,0.3789351792162442,0.8871769680467009,0.20907826445814054,0.8205781750785899,0.9602498864359756,0.9153307673530618,0.6284486348181487,0.6019116758016068,0.10513439125465435,0.9155913018521192,0.741853180319917,0.9179206548321809,0.5130360805108153,0.7874089108431529,0.4027690681609593,0.7190934065934066,0.44050391654783866,0.1763375981138227,0.8732880944578789,0.5848621675455742,0.8062434034261591,0.361195345437904,0.8437713342803937,0.5025454277653979,0.6929655410552447,0.4640474868636202,0.6130876238353233,0.2480262789322081,0.6060943879921508,0.4444734212373195,0.61253268089316,0.21405668761642938,0.8126618916797488,0.9559244049988085,0.7771765342214696,0.3433231358635719,0.8267798644881682,0.39941236909955274,0.7186459338979578,0.4267458475885645
26,2.35187474040346,0.8432944050072514,0.5798569481398193,0.1388159527547764,0.48149774467154016,0.26817721134479283,0.7152218102097007,0.13520305620184633,0.8364539885600183,0.4886621852848194,0.8970365410821723,0.6872721069327578,0.8959635622987114,0.6714040472012395,0.7431674730886717,0.43207708043021176,0.5753337545489077,0.039749857740923766,0.7291004322293934,0.5228331578335944,0.9053029493425533,0.3881935643582314,0.6377821126768874,0.4013968170868477,0.5603033501718592,0.43912053534325335,0.6058015874394057,0.24467907270867323,0.6022683691859603,0.21330707586093722,0.7393317700288736,0.1055170152334248,0.7449611550745636,0.21154517573491152,0.5444852305067149,0.037292962415638536,0.5588538610539472,0.04507237426934959,0.851038830928365,0.31951283862867347,0.8231742868484112,0.3082023395747433,0.7179730163444813,0.4352704861273128,0.8908804678550785,0.24468802543121151,0.8217096632158838,0.9608004030714552,0.854765455375741,0.5554813132278922,0.5235986099584189,0.0840247772420685,0.9155782397706826,0.736161616206231,0.9128746438837843,0.5384374258408974,0.7283079946107611,0.35751475829950796,0.7108516483516484,0.4170974303905708,0.158658833223908,0.7729453346313399,0.41944800333261956,0.7667782653841717,0.35187842588388374,0.6592913605424391,0.32583821696328163,0.677638140833832,0.4266246747315304,0.5089346158035121,0.17711156403992173,0.4894453038311642,0.31087043008949866,0.5943246758408705,0.2123930083072768,0.8206243962081874,0.9599364199786287,0.7694029758005387,0.291893461857772,0.8092559057521312,0.4299515820978172,0.6623398550017052,0.36950951095510354
27,2.2904589290191595,0.847645217922296,0.6690791108002276,0.16011705506105472,0.5240189649634712,0.2857855365453968,0.805629672199189,0.13733346006120456,0.9034535723186938,0.6528709678535585,0.8866396888467524,0.6655250376472885,0.9122957736100229,0.6927531521766623,0.7722694203520885,0.44722841904637645,0.6625852221366213,0.06851826275373583,0.7244990466654317,0.5530035475771181,0.915023730944523,0.5598227905615488,0.7483521605156833,0.4741841753051033,0.7005672726352907,0.5818693908723627,0.6238063147602211,0.25427462896340364,0.6747257101060588,0.21265447557150252,0.8729876864968199,0.2634898950685939,0.7559793078635193,0.14629771585542453,0.6134985293152514,0.040902160191924476,0.6976348539614848,0.06708487639183475,0.8433020189145383,0.3031372400578203,0.8725934640186114,0.3696340114702449,0.72786638534339,0.42825183347414897,0.9021152571657247,0.2123530374261774,0.8229466408625933,0.9612310113344644,0.9059210500121132,0.6233446759738996,0.6187958677912262,0.12044837118373311,0.9413834601693397,0.7570484578046799,0.893918043771587,0.49411523451178946,0.7774773417237214,0.3901214600274464,0.7355769230769231,0.4366452717759397,0.17034034670394974,0.8352719714311001,0.5444167635425287,0.7671681843237631,0.3854531520714487,0.6848750664540137,0.33654886411380774,0.6716332856211278,0.4726910576160073,0.6376048289102492,0.24273854190346755,0.6204332402280441,0.42720325223761013,0.6204550372738835,0.21530313981865373,0.818730376766091,0.959548616917321,0.7827185085372443,0.3153830739826016,0.8000579892974138,0.3937416384735355,0.6977812509653518,0.4057607679437211
28,2.3591952830013923,0.8766506373559271,0.740428207676065,0.19749002919417266,0.4850127681897439,0.23765162233944365,0.8042397000670471,0.15549716457143087,0.9071871184340575,0.5797466050528106,0.833330691409167,0.5339507250730908,0.8707532253116224,0.6078784144909517,0.7793181772236962,0.5206442105311309,0.6198237571883294,0.05464570104446358,0.715555247779371,0.5694227515440006,0.9347389596102467,0.5618364075943719,0.6337226013722181,0.3998806365350267,0.6757074581994726,0.5471870271942472,0.7084125004842198,0.3159399215405199,0.6651604060478863,0.2752292768155611,0.8284407857093247,0.15434399493174458,0.7782257618530536,0.15843145376216117,0.6081329910684987,0.051012348503206136,0.6467329293162242,0.06322285586837369,0.7726313927985078,0.2416855248612287,0.8679621693136937,0.3571070317961569,0.747112397490239,0.44822154007639203,0.9067586595325261,0.27268982188224744,0.8542528389600549,0.9678707243486421,0.8437990902990449,0.5190360254025855,0.5873973635762343,0.13279784985440454,0.927617404444583,0.7625857456752132,0.8587140423452889,0.42642702691353157,0.7630062461370523,0.3745345347184114,0.7893772893772893,0.40099569879643504,0.15259852072380306,0.8345504137595068,0.50357605273889,0.729358866436205,0.332094548866779,0.6908820735395369,0.4203800774451815,0.6411432614383888,0.4643174563498436,0.5198446172343321,0.18404244150004867,0.6155580577981601,0.42023207673735347,0.7278200519361222,0.30249536916425096,0.8463142283540634,0.9648182912929482,0.7835404842259375,0.350198031572122,0.7665249150507661,0.30932516969085627,0.6869575153244957,0.4003707305529161
29,2.245275352576445,0.8680253415769789,0.6848980022095981,0.19861335444879238,0.49263431514981837,0.2629498893348413,0.7690437964749365,0.17910901514624988,0.8837665245344452,0.5840653661493179,0.878007138730709,0.5894799946655627,0.8951800814039901,0.6463392083497966,0.7822146043362058,0.5097058168975633,0.6440642305456045,0.06862770163656798,0.7162841537998843,0.5791877478553136,0.948992194457541,0.7598624123643143,0.6965742740580754,0.48356084934290955,0.633197104293652,0.5376245528079795,0.6529664639399861,0.24353269746835965,0.6755541809028338,0.31268462680082987,0.8013980439952241,0.1416762776585651,0.7071803092890153,0.12514653504391052,0.5753524572069519,0.03199509687947055,0.6582729430975659,0.0738374629695005,0.7779864656369401,0.23018090391988144,0.8841682262505682,0.38064994271393116,0.72725046373565,0.4565707967468128,0.8875678353868337,0.25644238595571395,0.8390378562139691,0.9652150576488767,0.9005010368973753,0.6338505686688415,0.5707738438788879,0.1310428137257028,0.9428794879184734,0.7886897736395629,0.8856199515828609,0.5483378871325187,0.7596802217010221,0.3969992124433958,0.7429029304029304,0.4135284959122774,0.1553862992884586,0.8154072096766863,0.4990145311147253,0.7838802169017575,0.3518074764257638,0.6876763028618076,0.39893530691404155,0.625049432878026,0.4304628208084983,0.5944645423618777,0.23788059422722396,0.5572646722821364,0.39442893294618864,0.6611554462266818,0.23024584306851814,0.8257913446443665,0.9607189540755765,0.7884723383580962,0.3562035559564321,0.7808889657557938,0.4040724559645528,0.6848708152599552,0.40174152461727086
