epoch,train_loss,train_accuracy,train_1st degree av block_rocauc,train_1st degree av block_prauc,train_abnormal QRS_rocauc,train_abnormal QRS_prauc,train_anterior myocardial infarction_rocauc,train_anterior myocardial infarction_prauc,train_atrial fibrillation_rocauc,train_atrial fibrillation_prauc,train_complete right bundle branch block_rocauc,train_complete right bundle branch block_prauc,train_incomplete right bundle branch block_rocauc,train_incomplete right bundle branch block_prauc,train_left anterior fascicular block_rocauc,train_left anterior fascicular block_prauc,train_left atrial enlargement_rocauc,train_left atrial enlargement_prauc,train_left axis deviation_rocauc,train_left axis deviation_prauc,train_left bundle branch block_rocauc,train_left bundle branch block_prauc,train_left ventricular hypertrophy_rocauc,train_left ventricular hypertrophy_prauc,train_myocardial infarction_rocauc,train_myocardial infarction_prauc,train_myocardial ischemia_rocauc,train_myocardial ischemia_prauc,train_nonspecific intraventricular conduction disorder_rocauc,train_nonspecific intraventricular conduction disorder_prauc,train_nonspecific st t abnormality_rocauc,train_nonspecific st t abnormality_prauc,train_premature atrial contraction_rocauc,train_premature atrial contraction_prauc,train_prolonged pr interval_rocauc,train_prolonged pr interval_prauc,train_qwave abnormal_rocauc,train_qwave abnormal_prauc,train_right axis deviation_rocauc,train_right axis deviation_prauc,train_s t changes_rocauc,train_s t changes_prauc,train_sinus arrhythmia_rocauc,train_sinus arrhythmia_prauc,train_sinus bradycardia_rocauc,train_sinus bradycardia_prauc,train_sinus rhythm_rocauc,train_sinus rhythm_prauc,train_sinus tachycardia_rocauc,train_sinus tachycardia_prauc,train_st depression_rocauc,train_st depression_prauc,train_t wave abnormal_rocauc,train_t wave abnormal_prauc,train_ventricular ectopics_rocauc,train_ventricular ectopics_prauc,train_mean_rocaucs,train_mean_praucs,valid_accuracy,valid_abnormal QRS_rocauc,valid_abnormal QRS_prauc,valid_atrial fibrillation_rocauc,valid_atrial fibrillation_prauc,valid_incomplete right bundle branch block_rocauc,valid_incomplete right bundle branch block_prauc,valid_left anterior fascicular block_rocauc,valid_left anterior fascicular block_prauc,valid_left axis deviation_rocauc,valid_left axis deviation_prauc,valid_left ventricular hypertrophy_rocauc,valid_left ventricular hypertrophy_prauc,valid_myocardial infarction_rocauc,valid_myocardial infarction_prauc,valid_myocardial ischemia_rocauc,valid_myocardial ischemia_prauc,valid_sinus rhythm_rocauc,valid_sinus rhythm_prauc,valid_t wave abnormal_rocauc,valid_t wave abnormal_prauc,valid_ventricular ectopics_rocauc,valid_ventricular ectopics_prauc,valid_mean_rocaucs,valid_mean_praucs
0,5.639905895989193,0.020532783756965118,0.40399353790637327,0.03238716898953331,0.4699693626868059,0.13739419304695827,0.4785698376427411,0.01630862063106916,0.3159967211195889,0.04598163150851044,0.5209846359109791,0.07931630561373948,0.5384641920213301,0.056984995049273825,0.46622529846095506,0.06848537078793912,0.3949766893085786,0.015499876838687993,0.49827894845944537,0.24090683587791095,0.16171858138194772,0.015823229973393152,0.39904402934650474,0.08251412569992585,0.4023095125200756,0.20110778217633993,0.3448163103922247,0.06766667636276272,0.39173201300776583,0.02780351318542017,0.36272775681244646,0.012818662406381609,0.4181289764731372,0.014710294512222399,0.42593159526039776,0.013537085196149556,0.4125520636210708,0.021106647794438493,0.4684330576555474,0.01563773477482165,0.35328185491785025,0.024899748274211125,0.5145449101530337,0.03577854994828188,0.6727491779293346,0.04919618839718407,0.699799260692819,0.9032823423915386,0.21078021052799223,0.02317064385890197,0.35648752775238346,0.03290929752868027,0.469779616322329,0.09756059919537029,0.3297267781978045,0.037445740727276716,0.4252593502400541,0.08778643928692308,0.07074175824175824,0.4889756070171498,0.15145647515261623,0.3066241386156139,0.04688456040539911,0.5613662973297496,0.06187048082916907,0.44286225789677036,0.06816336105206806,0.4867228247492193,0.22995846682494847,0.3889630400010251,0.08408046695007848,0.39988835564398434,0.20914744869499763,0.3295942600869135,0.07272049093158117,0.7045497599927545,0.9128105756280789,0.46257051740677024,0.08538005561543528,0.32166408936455937,0.036754606703781834,0.44488919528222814,0.17811154443528676
1,5.538273418107093,0.3168460422868483,0.4847185540861221,0.036109036263050225,0.4914253802709837,0.1505775265719747,0.5772333435196207,0.019039913765406907,0.5978720004142357,0.10444924470035268,0.4772784457233035,0.07038641223128204,0.44527842890588165,0.043343641200127805,0.8325446436662702,0.22074269236147187,0.7291367579461394,0.057944623015456456,0.7862369842151056,0.48325209278432923,0.9087547802399288,0.27509615678622046,0.7538092034604446,0.2321266031963854,0.6694552781456028,0.36386236759490864,0.6788305457858186,0.17959895913559915,0.5718782844773336,0.05146726841460062,0.5527813699971225,0.025627665253932928,0.4649224565373397,0.016375580885932852,0.613916167986206,0.024562759856718103,0.4053905550384194,0.019892565178053084,0.5134736674886795,0.018361842313053843,0.36154259316571746,0.025176355320549553,0.5329751337886323,0.040117061437480325,0.6032708143210744,0.03393650376910877,0.7422604982643689,0.9304617952540926,0.2783263180817077,0.02535209770180496,0.4426433407971622,0.04051573572298803,0.39883774438225644,0.08256022298499835,0.5601710366144301,0.0678205736245544,0.5731468269377743,0.13476878878979384,0.4782509157509158,0.49833465321131964,0.16980879272185254,0.6162138393964111,0.12228935842253219,0.45479076842874416,0.045020877018290814,0.8255585768527961,0.21616879557072174,0.7906489909860094,0.48437976310312897,0.7653394032840519,0.2603895437831988,0.6725384947553117,0.39204044066803156,0.6868287167891465,0.20323119986363286,0.7443200172080667,0.9304288685655837,0.40194522410820965,0.07560905680291374,0.568578448328484,0.07409109496916598,0.6386451939407775,0.270314344680823
2,5.268492838488527,0.4225631631173193,0.4079596192692637,0.03224391297535381,0.33103075554975697,0.1106905643032064,0.6517323530171936,0.02420371314045923,0.43398500109119764,0.06417130111763042,0.6847954244892783,0.11423669893931031,0.6427407189963353,0.07611448157956605,0.9252987136517566,0.4907406822855559,0.6683176175408779,0.02691360920524978,0.38731627914342276,0.20746336585992423,0.8667014510974906,0.09290494081038829,0.5504421326621739,0.13129714318276203,0.7316336859591666,0.3931469862010766,0.7700254599420004,0.21000595394125268,0.3953476150782015,0.030010154384900893,0.40099106667416345,0.014353448045934237,0.44427407386684137,0.01682915337239542,0.4130315943654577,0.013486268116006504,0.4433581744650896,0.024562182420048526,0.3850566379599094,0.012292250674996973,0.6900925716575272,0.06744265402557625,0.5414728524519115,0.03904641312097576,0.6014661760004066,0.03953681914470637,0.7795720824501582,0.9477881865272271,0.3023225061706956,0.025739085777061875,0.5941985406564518,0.0659434378185704,0.6941905194454248,0.20647057528995955,0.7126174221035881,0.09352157403481594,0.5722211498428051,0.13226502060351525,0.4597069597069597,0.3188029778942858,0.11792073422082325,0.4223257119302585,0.06384212907632947,0.6463488631459301,0.08376285665965777,0.9231653608271382,0.4847841646106807,0.3617480515571794,0.20464635513222512,0.5537734670473644,0.1330212320449619,0.7329833230389129,0.40741763824474614,0.7895935645138497,0.25752273413851867,0.7846478384253109,0.9506061901771312,0.70229448980401,0.20795995749014082,0.7172314688587299,0.09474869842775047,0.6320831924584517,0.27329388092936047
3,5.038313630391383,0.4179833600488512,0.4544594002706431,0.037268488117993895,0.32229980080989784,0.11074789719474909,0.6559328662844528,0.027542120847886944,0.5030567665287279,0.07407167915454758,0.6935464418397588,0.14724792018273974,0.5898015157652201,0.06303762864187111,0.8720351705023122,0.48020052253668255,0.6565343953173259,0.029264724608055473,0.4594106238944882,0.23897357382350204,0.9272651265126514,0.17237562887711724,0.595957343904291,0.14658536679339965,0.7375648568961143,0.4301572903211357,0.8144416378249782,0.23913631469162833,0.39549958650592565,0.02964959446000403,0.35723496862917603,0.012898542903531303,0.5004604722548794,0.01940900816496518,0.39751202948529013,0.013060690042634517,0.5128171359173194,0.029773946482155686,0.3371247458841284,0.013003680693291789,0.6958789358377974,0.06375151422052176,0.5268208737952016,0.03656901061528539,0.6113072035199234,0.041078189213913575,0.8090993559221373,0.9563604495645848,0.3708359098801266,0.030154765597250666,0.43431025321548494,0.03942225454622939,0.7424304938485385,0.2251262384475851,0.7900530484831375,0.1415434344938673,0.5838404059085158,0.14253372130507888,0.4432234432234432,0.31038500275478226,0.11452537772402932,0.4894983459984644,0.07850858674125201,0.5877835725548344,0.06986040564709049,0.867866906046371,0.444019842854716,0.43745968085317355,0.2280265179878343,0.5880656276494192,0.1570533674840146,0.7337010172344995,0.4465821497376701,0.8266874823346523,0.27702550052254843,0.8103886155053738,0.9571760920913585,0.7604352151191451,0.2348968168420109,0.7788817221803976,0.12516474657640256,0.6537411989301011,0.2848035822008116
4,4.963787504556788,0.4156934585146172,0.3269841438461387,0.026411566889978554,0.3513439782480966,0.11716236293126665,0.629430844990551,0.02336829897134195,0.5389131853327715,0.07410275845234608,0.7921950095646041,0.2939220926263625,0.763038810178244,0.14940871637178144,0.9441060148090727,0.6198734781021349,0.5998474615882263,0.024578029547454406,0.4090533976392297,0.22319529997072696,0.8760999528524281,0.0974378087650053,0.646704247266776,0.2192271147322309,0.7105975083506512,0.3780624485291374,0.7941196684062959,0.23833209430688107,0.42187935527872134,0.03095573669270112,0.38595159268532264,0.013246331279994902,0.43891171099193305,0.01653414542955517,0.36258886008507896,0.012091264174929554,0.5165772475815233,0.029291245278867097,0.38717686164931603,0.01328959411855336,0.6640584243123565,0.05607875810282171,0.5487870069935472,0.04228326298837451,0.5908240398235804,0.03985003685520953,0.7972183823303536,0.9539013705347156,0.36260259862929245,0.028847296473313837,0.47126450022538935,0.04223814966042069,0.7077964448369728,0.1907414893273681,0.8131898892327323,0.16351471486877475,0.5870837458418224,0.15251649874008327,0.4858058608058608,0.33576721173533347,0.12116579754826373,0.5370956386821886,0.07866544882509124,0.7384936523333177,0.14459193375707022,0.9358569880571607,0.5619917863482149,0.3910648104402239,0.21314394585394936,0.6332968865786962,0.20268745346932765,0.6957766456952014,0.3798783621202206,0.8014544653582532,0.2801484067883397,0.7983933477237048,0.9550015095181732,0.7278071002366507,0.18978066025477178,0.7984078377113558,0.15230183486317653,0.6721285985956441,0.2981233763042362
5,4.711928150943377,0.35920922067017785,0.3826633991200832,0.02794377474533849,0.30801865872624345,0.10268871107342706,0.6497015569816358,0.02889435277079145,0.6520559367809103,0.11516817155548084,0.9087396780442181,0.5674341573914744,0.8490383906842472,0.43340696543875773,0.9017830628374809,0.28248180826627306,0.6902478095635254,0.03487809931447372,0.754460517385035,0.4960642660176564,0.9265627324637223,0.1942055853113712,0.76131278350191,0.2623730664221842,0.7554934853056152,0.5271291175616044,0.8575372314917843,0.36398674285247684,0.37775673698811574,0.028153347045571722,0.461351707121855,0.016055332646711298,0.4753113026664125,0.019043996302533624,0.4094701060205598,0.015192957005286362,0.4503445102927651,0.023467648251639783,0.6666145883678811,0.031420530925121155,0.7342958008351753,0.10216327573298933,0.5596868882867911,0.043898364701865186,0.6104936023528266,0.043858768098058824,0.8208701297371466,0.9582449658155442,0.38324031731418007,0.030309938006659286,0.5192933042503802,0.049767930176638685,0.7677236267288533,0.316494405763994,0.8399483333577772,0.1833158123489708,0.6471857850817456,0.19622378116825537,0.4141483516483517,0.29928106616507405,0.10770220000127818,0.676372215325566,0.13634212374937255,0.8027565666622513,0.37895233982618176,0.8946453316599995,0.286141023718521,0.7627271433454306,0.5309272321212495,0.7619590913653224,0.2521271282768997,0.7284158800089644,0.5116842309942017,0.8681000256147542,0.40963411218504486,0.818352252143461,0.9580643903705994,0.7610346833499918,0.2861001795592247,0.8373257777687345,0.19043354228195428,0.7464518212190498,0.3680098639167752
6,4.545704991223658,0.5362186092664682,0.4929558439945348,0.042077086619167335,0.3149319867955581,0.10308492677718688,0.6812379988050117,0.030014239089483623,0.7603627771956638,0.2262614685693558,0.9074191353141557,0.5164874723414559,0.8515452405733053,0.42241273779899713,0.8602165018270844,0.2223989585895949,0.6689292830285191,0.038734493692283115,0.7698119849517349,0.5120674711578874,0.927882235842632,0.21191729597673462,0.7669285432575229,0.35316358362186456,0.8378001258365755,0.6527973606628427,0.8998711641444939,0.49967428127844676,0.42263311708636586,0.03208056814725645,0.6790506728934251,0.03433174799556174,0.5424964980686515,0.025561715848536663,0.5007401899659326,0.018052351128201312,0.5754194846968523,0.03481637346820395,0.5756918733126068,0.023787990423003186,0.7503598257514562,0.09815405399739113,0.5209462052974043,0.03769616248553866,0.6171744483709979,0.039779620027590355,0.8244093836717559,0.9592845372267287,0.5819054746527519,0.06851634088062292,0.6389277995677579,0.08019907403392983,0.8106260631665481,0.3448147111660983,0.835673792963107,0.177483068494668,0.6894795426308299,0.21502406264809745,0.5927197802197802,0.31104669638634175,0.10862155303324132,0.7728815505277736,0.23660220396788945,0.8024147199206916,0.3563286057606678,0.8544853191099956,0.23263972177302494,0.7657117809484812,0.5204266510912192,0.75482421203469,0.31839095257059485,0.825800915019104,0.649769182645247,0.9037655344650933,0.5106725948369607,0.822495396087429,0.9594049565333462,0.7857534274137473,0.29511523848437604,0.8343479764787272,0.1886489421295897,0.7666843207629159,0.39787460025692345
7,4.442234778074843,0.6299519120677811,0.4037946413979303,0.03305101038931063,0.2820252790677341,0.09937020581026107,0.6191189393490202,0.023529725963326496,0.6980824183347466,0.16402906681602122,0.9117355361780902,0.5697635733118446,0.8461012704744135,0.4782230997321963,0.8978884401537511,0.2936049840523595,0.5731329241704877,0.024528485102075507,0.5576684989156947,0.3349386734781816,0.9558271255696998,0.344722683630126,0.6974075987855397,0.24563705682508594,0.7030491765054887,0.4454897130214776,0.830640793078529,0.38105784476372595,0.4016150979700901,0.03183591992544356,0.6155756058356016,0.028061402882646965,0.5082312465314126,0.024367938937872584,0.4630978945044717,0.019072932534438265,0.4875230967660343,0.027344910856001027,0.5031629136571779,0.02647395381397913,0.7491626381888511,0.11316505706228809,0.5642881850034368,0.047557472835163234,0.6402823095474536,0.04812953039749962,0.8336524437071853,0.9614575906008759,0.5064339397904276,0.07821109692673675,0.5676404444383591,0.0670991644200106,0.8069883034453339,0.3645636111329782,0.8394433770633657,0.1975141353420886,0.646798894015938,0.20269632742829685,0.6279761904761905,0.27618944011828606,0.10422127767628882,0.7017933698018946,0.18360011199428633,0.7789319853176825,0.3927947015719269,0.8868455187480209,0.30846422715145894,0.547212335646617,0.33576642624052355,0.6758749890552957,0.2150028232125359,0.6665968832503403,0.45345679713537257,0.8356741759115319,0.41209597656285185,0.8340848025600773,0.9628179440710629,0.7918753413802918,0.30751186986254075,0.8336032718172015,0.21560550909145093,0.7116983739642945,0.3537579695063908
8,4.325273248914744,0.5524005801083887,0.4011401819976596,0.03492474960572593,0.3108943667299527,0.10431970799928227,0.6410367512128523,0.028921717431456256,0.6966075238126319,0.16331321809633528,0.9404229745751282,0.7252792813752809,0.8833552030500249,0.5480927286371277,0.9205196524845142,0.5202921992056889,0.6195662718453085,0.029959968100481578,0.6981500610526127,0.4724569135141945,0.9332495154277334,0.22970814328678907,0.6711105836942881,0.23624876603509906,0.7588182807272625,0.6018251921421629,0.8567335602376083,0.41472479910491017,0.4006775701704386,0.0325357875118831,0.6013056017674822,0.03213773049679258,0.5720369887229028,0.03217603574774076,0.4977358017767543,0.019330132993812244,0.5223483006266698,0.033303708270552956,0.5876236110268117,0.026851968179518765,0.7394803933100546,0.1068506735983292,0.5644862574627516,0.04344972083504867,0.6974010286205516,0.07624447723924523,0.8380510142434389,0.9635487149997223,0.571713145580024,0.13739545971171804,0.5026152145201312,0.05589860107768992,0.8163777529984367,0.36656973718139646,0.8670063482184106,0.2800611595671837,0.6707579242923124,0.23394152933130247,0.5991300366300366,0.3101358441038886,0.11031724072530677,0.6973516042897998,0.19546097402050425,0.8256560252624742,0.4703521958931199,0.8987698381572411,0.48351083973921777,0.6860883924019769,0.4775285815867267,0.6384152709054527,0.18833820580209565,0.7185408888913182,0.5647445529097578,0.8602243167926796,0.43441970746067504,0.8332868539427605,0.962763884241276,0.8056870775834979,0.3094809765337464,0.8542433922721631,0.2815128790814588,0.7389454095093865,0.40713000345398953
9,4.258906964409143,0.44836272040302266,0.3970149997711955,0.03021999031514217,0.25819075861212926,0.09624683722131053,0.4580476991913304,0.014389113560862579,0.6070433027718974,0.1354305869430399,0.9192341556678751,0.7020578680121372,0.8445447839943052,0.45239518171028525,0.8331108585693114,0.22229337545006347,0.46889671546342004,0.01935804676424859,0.4229706447719246,0.22427429115790187,0.9026807061658546,0.17374346203375088,0.6401215259336631,0.2498772191857343,0.5246766288645612,0.25951628290994905,0.6887772215001596,0.17650494370599346,0.3784810105729282,0.028390558221545285,0.5202135928110044,0.020382627759264336,0.4916851495339325,0.02398887439349274,0.4207534350780686,0.0158201485720537,0.38479444691905185,0.019059733863113226,0.5298090187624248,0.020701320966077113,0.6946420877825683,0.10661841621533104,0.5709336100081451,0.047986581555604674,0.6483432602909696,0.07164029382658273,0.8250174996672094,0.9602629315107867,0.530324309523744,0.10873817809441749,0.436751225423079,0.04290476987006299,0.7388721551775275,0.29917822244625325,0.7717024073822845,0.20640376752091869,0.5891716003781691,0.17512531939947862,0.48305860805860806,0.2545469504189881,0.10174172545837304,0.6189162921343835,0.16482058856253295,0.7891729659050606,0.3873413531956951,0.8127972273787631,0.2346736106573012,0.4171499131497871,0.22585209010187776,0.6045045732846712,0.18181909985120892,0.49140898730233346,0.25995046749552747,0.6848010661037309,0.19172226732827824,0.8198692790725757,0.9599125644213775,0.7273283541371889,0.26499174396055714,0.7593983356054287,0.20607299614836289,0.6345358131357192,0.28899077338009926
10,4.136974214424696,0.6076635371345699,0.4973962861756303,0.04235511825597603,0.3115306244023051,0.1036360435151257,0.5886564286876261,0.023874197157597758,0.8609698368162625,0.31260509615116727,0.9079916360874429,0.5974624122530837,0.8579989943703038,0.43240791904874365,0.9467397244804208,0.5839150984203141,0.6255492233234161,0.0480612944367059,0.6263686214882092,0.3902836857801114,0.9725257478128766,0.7778834545775972,0.6788356726543844,0.26896075194403535,0.7175303222757474,0.6050774528815891,0.8230007734158665,0.3371160555575108,0.3996881496881497,0.03221832344716817,0.5307463841693926,0.022064670229320297,0.5656588543072942,0.03002338534252049,0.5248032623546468,0.020589640828946064,0.4193835685863524,0.021709697376060905,0.66576147839425,0.03986284925331223,0.7469748705017121,0.12189511160418218,0.5830181662694394,0.04864419836183942,0.7186097107031166,0.0920228139187701,0.8466314010997451,0.9650710346738991,0.6802824722230645,0.1952248326063814,0.4078156135857133,0.03739642033612274,0.7987931056177137,0.39410011302391584,0.8803583001202636,0.2359411213224203,0.6734673788744945,0.25112602934460804,0.6211080586080586,0.2996606529360364,0.10767526700859403,0.8657073537490304,0.3780282780139568,0.7821100917431194,0.3258109869837172,0.9249047855605232,0.5556358098679249,0.6153754623942661,0.38528908692578967,0.633103085232017,0.21024608805060743,0.6736271980409626,0.5751110185659228,0.8204182160648671,0.3547125423585702,0.8425684548967516,0.9653575676716506,0.7892700512654816,0.3475255375760246,0.8695515494333327,0.2273657088147524,0.7378451728469444,0.40297799016704644
11,4.019688740330574,0.5533928707732234,0.4663909844478293,0.04175036793850452,0.37009480216667373,0.11452264999154615,0.5322950921859013,0.020099458114947406,0.8186853337743096,0.29764108705120884,0.9248085737232714,0.713788948543817,0.8597171859129004,0.43344800212873724,0.8735719150437148,0.3126697566909516,0.493221127467686,0.026009452276612256,0.5524220273049973,0.30441636453941356,0.9601839803027922,0.5962885068036953,0.5556387251314977,0.1822247583299531,0.7206617264530233,0.532230610783112,0.7588650289129298,0.20314345954357566,0.3846690070541101,0.029776164268642935,0.48126151393578986,0.01693257221111843,0.5287561751427611,0.023503434294517886,0.4656743895017571,0.017676477575433426,0.4356458074313234,0.02282549018725021,0.624503101843422,0.04597224794327974,0.7529630116754389,0.11969032697429476,0.5683852429010933,0.04425389917406447,0.7217257449452976,0.08481667842523942,0.8561025609518835,0.9676371854081787,0.7129042345412552,0.2781801875109753,0.38792361880547843,0.03512276565136227,0.7956307337594288,0.3753664620654261,0.8512010557906239,0.26837650341924524,0.6464408407817479,0.22623569695722606,0.573489010989011,0.3574424546845141,0.1182187060625295,0.8100812370289044,0.3331347591036928,0.8002023305401605,0.3485316222706877,0.8423354918178043,0.3188586439459585,0.5471088036601912,0.298472843383884,0.4961095580902185,0.13443381867007026,0.6868956583054109,0.5046123986333299,0.747344677430752,0.20776055316823097,0.850159816145393,0.9665685267217604,0.780248143157511,0.32857063895498295,0.8411093250859665,0.258497897592911,0.7053670450860751,0.3470600371370943
12,3.9282308907993295,0.5840012212808182,0.46870321764540523,0.03855682213667995,0.3474238699234724,0.11107804873190213,0.5967697306107059,0.03146530384932783,0.8614506201594625,0.35351021095826274,0.9275230040304859,0.6677334644431815,0.8955491253477922,0.5878973065926439,0.9424371708843199,0.5974579436482358,0.523037930189503,0.031203973027070907,0.5866989610996142,0.31574631425013844,0.9744761904761904,0.7725150916792183,0.5594665234158316,0.20985503287062945,0.7347980081280987,0.5620743105489411,0.8255748523630593,0.2894308022085025,0.39399667557353774,0.034260708828542055,0.5436029647661162,0.024691617763596244,0.5532620498643794,0.027101512895218963,0.5097033870496215,0.01944616075903266,0.4639574210478841,0.028124948613982653,0.6741569497553069,0.06143309520597208,0.7767756629658117,0.1467914543494625,0.5895460979041917,0.05061822807799122,0.7884219842763767,0.14903105518772208,0.8700851329626558,0.970617537241453,0.6924278467358176,0.1733808073044873,0.4494722307650179,0.04332240072756152,0.8418340420611007,0.4836566793328829,0.871860608688319,0.3218147026145506,0.6764078614329659,0.2630672419943404,0.6474358974358975,0.33972099689974894,0.11490038252209603,0.8562250494526128,0.4166171692691,0.8325816265922579,0.427861689810329,0.9119647728362137,0.5418312099032536,0.5739918317637301,0.3064271810066231,0.48644618515663207,0.14286759626593523,0.6893023662590805,0.5258454926171128,0.8164415806953081,0.305003389103903,0.8631169997584833,0.9689543973874308,0.8188481570050496,0.3973352243793252,0.8573687101959429,0.28783651311634334,0.7314552978740964,0.4032254768528593
13,3.836656361825138,0.712388367300206,0.4243527283305768,0.03945909159926691,0.34905659907249986,0.11302842166751133,0.6314960387504619,0.030774722361724273,0.8362192488731127,0.32904923183037504,0.8907529970323224,0.6924104024574251,0.8395313852308252,0.5501552597184862,0.8495540077349593,0.40793269092252166,0.46138790741740465,0.022227108072874056,0.5351349770918032,0.34806280043066623,0.9264034784430825,0.5779132347539208,0.5459173819373138,0.27517149569587285,0.7166923926849992,0.4709885428202302,0.8458058886468159,0.33608313722333477,0.4050218937699128,0.03345804515926123,0.6166774708864862,0.030070895451051363,0.5621621278730313,0.03254111764384754,0.5171602882303457,0.020973596655866254,0.470421144595287,0.02426806328129065,0.6229171490465925,0.03684028295468145,0.7956153291532756,0.16676091000255144,0.5982960641515509,0.054933214533616735,0.7808676153916191,0.11549414125950591,0.8630352758066333,0.9690475574595889,0.7127200861003072,0.27238932701533286,0.4717285100709029,0.04966482861991412,0.8756625261466322,0.5048591963947998,0.8600897532027545,0.34130298033921014,0.6668400098396854,0.2535503813453603,0.7071886446886447,0.34060260520909247,0.11635109361281129,0.830694664698927,0.36680707601396373,0.7584735261064083,0.41780479394623976,0.7988338954689257,0.3678658010740984,0.5183423683218953,0.3262609280168095,0.4840436891234199,0.18458812209337214,0.6676654987510043,0.42412028323514317,0.8367396171919161,0.34055014237495285,0.8578443877551021,0.9684517309815401,0.846428429825231,0.3955547261834651,0.8326276273221154,0.2961347100165586,0.7065723917976398,0.38222630977717775
14,3.7669510753288877,0.6221662468513854,0.40393699050134346,0.037332504161746244,0.3408022599945004,0.10840446350369426,0.5047639898015499,0.022415140080316476,0.8710885303180663,0.35839068532557883,0.921856034758664,0.6874784880250389,0.8811053594572297,0.5862438845412365,0.8717475755057768,0.3447996002508784,0.43352059158320577,0.019405930910597516,0.5044866401410901,0.28703076193216515,0.9692562208601813,0.8167882482762282,0.5479436337715934,0.2559611868011222,0.6093300263613163,0.42154207243409564,0.8049203742317601,0.4086250105015796,0.37772724876528363,0.03016182758802402,0.46756220419313976,0.01744382299664241,0.53880653919398,0.02841823143772849,0.479549129223371,0.01883895804762457,0.34076052640633386,0.017593152147458723,0.5714596685422347,0.043959480007703264,0.7298277243114413,0.13172842940509827,0.589052796649824,0.05606411786257855,0.7365643057234751,0.10613480754877785,0.8660386446717661,0.969335191812495,0.742243177625681,0.33473785140075485,0.4123856069925474,0.03754813860291151,0.7987096700745915,0.4306462658062911,0.837361850282693,0.37250384130977043,0.6352891599978755,0.25739007750807913,0.6188186813186813,0.337645844567893,0.11404370052979886,0.865785489275899,0.4153685251455236,0.7891574759745836,0.43125271771746587,0.8203864210119604,0.3288602830124377,0.4877610610074624,0.27180549302051504,0.4828002639542309,0.16725881775674217,0.5660670850027605,0.3781598293495259,0.788240509291973,0.3931083014872633,0.859819919091897,0.9687424298707377,0.7763001152186224,0.33636718542611693,0.8073503977862332,0.3204033017631181,0.6892104165621377,0.37503368955265864
15,3.7204583198930843,0.6165178230669415,0.5568486098490544,0.07169517849530942,0.43601007774167255,0.14241869184423056,0.6743747976045501,0.040394144520202256,0.9180287190104871,0.5123298604445968,0.9524471682263246,0.6478764738334829,0.9237868869355312,0.626058425974579,0.9259522396247959,0.5577461532027732,0.5819590807757505,0.0375348647234515,0.6419128620143455,0.4206277736371037,0.978109906228718,0.7087171478834865,0.7091522739656237,0.38325965057419553,0.7506349431353043,0.5891107469656283,0.8461676843074055,0.3914107532149962,0.4420151987901592,0.03773797443722063,0.582150546880943,0.02733611062314392,0.593192525222689,0.03134048217662844,0.5913834430132033,0.03201880610955234,0.5432403542232559,0.040910611469251464,0.7189467220270223,0.060476764234269044,0.7811449272365552,0.14401618009636472,0.5810291530531015,0.051410445800088536,0.7943878987810274,0.10878351733335226,0.8767547691457008,0.9727208683535946,0.8348588174867666,0.38700274703185444,0.5314252297075837,0.05844615604733262,0.8591479807999385,0.5223967236167432,0.9130548790213175,0.38329581615821684,0.7236339886966233,0.2958175210667277,0.6616300366300366,0.41531861698622535,0.14423158833115718,0.9143818004817295,0.5502710631707286,0.8571828410028074,0.4313262946294881,0.8771733730750124,0.477010016100562,0.6153588389485584,0.37652666618983494,0.6509189280383032,0.25331697435142436,0.6906500243239845,0.5196487105661701,0.8359236989471455,0.3785254820975679,0.8645910065209517,0.9690452607222119,0.8211708744838982,0.38576842754740664,0.887461086129367,0.3399013893330314,0.7663755535398167,0.4386883520945076
16,3.605943365958199,0.4245477444469888,0.5315171701455851,0.05139001474109117,0.38139935010661674,0.11472925474529877,0.5998488020469878,0.04233093825513355,0.8518962135166666,0.3468870868182425,0.9505795375173361,0.7654484040159808,0.9210390447288485,0.5777764937720041,0.9104196264131846,0.5272341823218087,0.4006651468469621,0.015192587315825876,0.5792589567953628,0.33951304113409236,0.9497075802818379,0.38990111307939307,0.5739981785063752,0.17257472609293267,0.6461898183822206,0.3619270474244096,0.7346654275092938,0.19707085644549283,0.3753711562348646,0.028901634435172432,0.48208935971767913,0.01706715665760713,0.5295671658396275,0.02390115880186497,0.5256068439045636,0.03266523983206887,0.4288796290010759,0.02098838896316451,0.6685235015499851,0.11029594758076143,0.7007002280308837,0.07946444851571463,0.5761114360099491,0.0535729570566962,0.7673740109214179,0.18897077413613914,0.8892528901586132,0.9753628059038745,0.6967441943088408,0.2189787247566462,0.3830795245337389,0.03397369260540285,0.7783876178658117,0.3750948092274896,0.8165677798697633,0.3160496079114429,0.6536829700275589,0.23619492935354636,0.45375457875457875,0.3691458927229687,0.12007167959523792,0.8358731366072119,0.3334694828718649,0.8341642701785723,0.4178732745426725,0.8512076473681304,0.4623055707401164,0.5550177725049374,0.3140947872682477,0.5165099527402336,0.12453461796140697,0.5893709653615528,0.3139594160679565,0.7219518442622951,0.20610077637818616,0.8742056363965705,0.9710487713531544,0.7487050480195948,0.27649091184450286,0.7637831403747939,0.2272793969220067,0.6963577551397147,0.3424753350495775
17,3.4693223805693614,0.5100374017250592,0.40574993953023164,0.057518655929314565,0.35059492017672966,0.11240844165657879,0.5571621763383185,0.02777509704976655,0.8269046869356561,0.40648026694474765,0.9056619621964973,0.6247192149198516,0.8430634909702833,0.3924669530751099,0.8682110850552727,0.4269940579201388,0.4796244840056719,0.021136849499786135,0.47449648306576925,0.2716678995324264,0.9633862433862433,0.656456781383976,0.7075104893247883,0.4097899997851521,0.6183502134957943,0.4187447840246741,0.7941015686049262,0.40657839539514457,0.4108887322041047,0.03422954702872853,0.6199126181160306,0.034816379054285015,0.5437673104061199,0.035996766269351825,0.5218249765824031,0.026258508936217912,0.46472576339054483,0.02358926274826053,0.5152325277307575,0.03373132715011634,0.7916352122802445,0.17799714091556748,0.5688438515676777,0.0579169734048717,0.7816098610367089,0.16598877761263622,0.8880017202715571,0.975106739840369,0.7725778239641975,0.39345204164920816,0.5371739753209166,0.06348270711721211,0.8609479416136944,0.5447263736687259,0.8787372151070273,0.43480160725684114,0.664840639728821,0.26795672406552073,0.5006868131868132,0.3427767971298795,0.115312565709659,0.8110108903383828,0.41097777161861987,0.7689126709767843,0.27071856622978174,0.8093307245593699,0.35658104961098874,0.44530244755448695,0.2338691958045687,0.6444754336772284,0.2583156841807531,0.5563545726357907,0.37150000447505216,0.7732089545647258,0.3448965296093083,0.8708704413718149,0.9709604690022404,0.8029039590349567,0.37087448492166575,0.8318015341729911,0.35676377421220107,0.6960862205469464,0.36916091776134896
18,3.3821858483938287,0.5522479200061065,0.4721362661715772,0.051101997339655536,0.3421692060346855,0.10993609666808542,0.533801750521097,0.034836070669161064,0.8423433566116096,0.36540561315319164,0.9573538923678417,0.7870726777405288,0.8830466630480694,0.5110974430950811,0.9412040545099915,0.5819281328004346,0.46389661782371816,0.01726755997638011,0.6295074247687341,0.3898095247507818,0.9814448111477814,0.8750097247548168,0.654878347437123,0.3214957611326621,0.5633361099442764,0.38799626520139596,0.6746007023524399,0.2297497694655702,0.4034988023498325,0.03283916193430377,0.42732023376803785,0.01610699344490025,0.5063909840475885,0.02663528749328606,0.494574053302627,0.0299381608773428,0.38665706684322665,0.0205231868177596,0.6524552857225282,0.06788205671162073,0.6857280530867558,0.10811905807305555,0.570941385932993,0.06333000040355778,0.7794402932140264,0.2044887417556129,0.8931613471364647,0.976301332238917,0.7026747695043444,0.32115197979707694,0.4131453745676526,0.03847298070310669,0.7688038249129845,0.47200343447157206,0.8046448760513908,0.3378717176520544,0.6455242797473851,0.27327298996747823,0.5533424908424909,0.3336405900108047,0.11443957739779186,0.8157970900097349,0.38112755287174144,0.7935256363690749,0.31508480688736623,0.8927294224964629,0.47070041633109916,0.5900375398233598,0.33369697803666604,0.5762589613102039,0.18955771256905773,0.49380121018655676,0.3098836829631315,0.6436242448063878,0.1933876455253252,0.870352689892525,0.9708634407674113,0.7143442154866374,0.29043618665523296,0.7509634362219464,0.23736683335189687,0.6795522760557904,0.34604953030515645
19,3.2663425380114828,0.6670483169223723,0.6482307689793357,0.11331835354111838,0.403727600173776,0.14322989606423409,0.7230945181049857,0.08540357685482199,0.9074281482329616,0.5617701491548952,0.9553653621767709,0.7100439998575213,0.9484950713067551,0.7533758317696309,0.9453427909288503,0.6458232963903361,0.5852912718295601,0.03707913584271194,0.7503103740376279,0.5513748333864996,0.9904168893079784,0.913821963077523,0.7406453282917695,0.4193742108940114,0.738683239010165,0.5893085058766326,0.8546940265312366,0.4875407147524223,0.5073904240702973,0.0665663238619449,0.5959437871877388,0.030123172498116822,0.5497661366979634,0.03672246494064857,0.5859537673991253,0.03875166306789815,0.44825394493228826,0.022616513382338846,0.7536617787998612,0.08494357673680686,0.8066190819850177,0.20564262596149668,0.6270785218018133,0.09904955195954376,0.8565978449361928,0.27446454102465867,0.8757848431788161,0.9723132669368162,0.8282078045861155,0.38780291414711193,0.46772514976808066,0.04910076575180286,0.8669994301816768,0.5838738665805425,0.9175105711975772,0.43146349558937785,0.7362673509494199,0.34425552629264683,0.6160714285714286,0.3896092654264882,0.13551982560670733,0.8876738017159519,0.5428840012381813,0.8460514564807732,0.46523171879747355,0.8931477559605256,0.5112880508189356,0.6986326778446216,0.4656787498431154,0.6522013270320312,0.2478921841635146,0.6499117230673364,0.454466984365664,0.8181208928066704,0.39169315235299557,0.859761804129936,0.9676748596260334,0.795021513985718,0.3507679734943905,0.873006490731886,0.34464759215411006,0.7602853371983581,0.44343137204192007
20,3.200180688474699,0.5125562934127166,0.49446971281762975,0.08368131916762356,0.3710568899072636,0.11374836487548821,0.5241314289536858,0.019731082673243427,0.8380200441255915,0.46216109703635,0.9271205928511378,0.6435375310101714,0.8792970441325986,0.6116615869211566,0.8870426102419895,0.41811667360529253,0.440201036996628,0.018832087493974962,0.5625608692666716,0.312056638474439,0.9704189847556184,0.740040039589279,0.6346034120549044,0.3436100314461524,0.5075144903340066,0.26088646085256023,0.7293870311917684,0.276821633040499,0.43576748453927533,0.04742867297489779,0.5008033709165837,0.018883248178129898,0.5221771635689836,0.03855323038092654,0.4843111423014277,0.05317456309247165,0.3936042299977589,0.020019872895620953,0.6482695392906411,0.12229813921986799,0.7280569002647084,0.14036233545164006,0.5992642949697115,0.10233841277931024,0.764890330585687,0.1616938699421578,0.8651319591640299,0.9701589841697493,0.7802426869715398,0.3495766706495461,0.4622372080996937,0.042164177054850684,0.7918955476876821,0.46893845354928376,0.8041072643124803,0.3758097416430211,0.6498734544555445,0.267269811783989,0.4858058608058608,0.3627028605674657,0.11972115899842498,0.8173693681626432,0.46628125469743087,0.7842541117753383,0.39378295725448736,0.8341511171537056,0.36145570730692905,0.5295401546622057,0.2707492291295836,0.5559664120376797,0.18660219295813127,0.4475558495083275,0.24615296810734852,0.6953737766746749,0.24180367740700842,0.8501290604999396,0.9647732872305592,0.7172161003082557,0.24947501707477843,0.7449956253687916,0.3073129288864779,0.6672049487926389,0.34619185264101454
21,3.1236408799670596,0.7287229982444088,0.6184469565729004,0.13065640266745168,0.40793145359849126,0.14806319911366234,0.7083415051684006,0.0669412999650051,0.8921675160748825,0.5560326121886594,0.9460887696584319,0.6749638535846118,0.9125898047065204,0.5312894202689986,0.9522727803469578,0.6251204895632034,0.5564716539346595,0.037714338120602584,0.7419828774906994,0.49277089769761123,0.9778486039080099,0.6832701373409175,0.6879079181862172,0.4216084885594154,0.7125606916666422,0.48516260131925226,0.8286582303336643,0.44860564669335445,0.5128586772802304,0.07326463072939557,0.6668448260465485,0.040930890713919366,0.589896675946595,0.05747210557513118,0.5852736129921424,0.08719203036404462,0.5290186978027036,0.0333920538699458,0.7054357754683488,0.13625779094744456,0.8429611439035213,0.2613381492289207,0.6221003063543491,0.11644221226174858,0.8404894946462186,0.21315920135992175,0.8660791939298988,0.9704846377475085,0.8325705529721177,0.44952738602234366,0.6017717948366875,0.10259593948925796,0.9063202199223106,0.6300555987632077,0.8951802053466015,0.4769787314688241,0.738521108855361,0.33152928687497624,0.6769688644688645,0.38934996886491663,0.13898605412428147,0.8588529545195421,0.5300656254395739,0.8237801412681658,0.29723304829752245,0.9006370870046453,0.5017014172908332,0.6944109059136303,0.393310883053898,0.5836933518129769,0.22263464246630604,0.6367297632647706,0.3966073117191528,0.8004914278900508,0.3600697393535801,0.8492803556333777,0.9652308787952293,0.8205169629388974,0.38028821616485775,0.8298248112804444,0.35578683089842544,0.7443243391264925,0.41290133160033277
22,2.977785696829378,0.8055110296923899,0.6625749334832547,0.14748379317849128,0.383492590282223,0.1285080754604745,0.6905398276236913,0.08673337204304465,0.9079282577173747,0.6257369144680396,0.9577733712160097,0.7549419456087596,0.9462841790078653,0.7764543922246584,0.9229323396717799,0.6685196958296671,0.620271324983354,0.04123177502406248,0.7032990185242467,0.5018160189668527,0.9791199119911991,0.7227017666010764,0.8292636793974514,0.5384210671562125,0.6578884781644614,0.4730102656526517,0.8443412406979711,0.45673861402999255,0.5308141220581791,0.078815721582658,0.7211158554130795,0.07710163649733245,0.607637626064649,0.04996770822383652,0.6805060438281955,0.060181556129348106,0.5395809058674852,0.03208726044365012,0.716407811295221,0.1477579871214146,0.8669443861589625,0.27392397378138483,0.6411723428639398,0.1575961498836652,0.8374931979342893,0.17069259031816064,0.8682101598418988,0.9705872751795184,0.837426558845266,0.45639363911026753,0.6951494152514882,0.16391553199147305,0.9009224645631124,0.6169499661775754,0.9197480420482962,0.5375111485177213,0.7581051142516647,0.35984369782229586,0.742445054945055,0.37131111649200216,0.12788734549820852,0.8713745713508915,0.576119844726972,0.828564927378933,0.4438604417831243,0.8350284553908367,0.5183366087936595,0.6386576188459713,0.3889446599544797,0.7391663445542355,0.30499083082532347,0.5845449775071468,0.38442126711265484,0.810020226823064,0.38481945050270205,0.8451198526747977,0.9613449226227083,0.7906642735279445,0.3614636045809787,0.8528587706268947,0.3951066503743659,0.742482830470247,0.4406632387977434
23,2.878502955637618,0.6826959774063048,0.540171538024044,0.10099587418274758,0.404974406993806,0.14888492555288949,0.7478487169078688,0.09419689829292202,0.801122064819513,0.4222442789707789,0.9272920243748117,0.7020618546091968,0.9333840161709878,0.6965357826605199,0.9304018801332287,0.5977597201126198,0.5267791056077316,0.028855935237369783,0.6623774453333465,0.4131154974590369,0.972981088585049,0.7557850301021057,0.7102302205167849,0.4458900177725038,0.739956928928882,0.5796481748120191,0.78507798276044,0.34919957860872064,0.4929570097953616,0.08082880217891839,0.5187007815419827,0.020807526151837674,0.5535289643717116,0.05686873986551977,0.6029117618982274,0.14334003340004314,0.4806919405189112,0.04218191066216655,0.7413862868472697,0.22459849748073563,0.8179968976681324,0.262291140971625,0.5993406015728902,0.13352748484700938,0.8097970919978064,0.22403228424949354,0.8704778054249992,0.9717562092783042,0.801878023135476,0.38464276638437955,0.5085653228966116,0.06682421891490278,0.8589217012102797,0.5889979102686971,0.8582435747834887,0.4100157937805348,0.7110368586229497,0.33132914395583696,0.6316391941391941,0.36952879381088355,0.13537574778626635,0.7606477594637671,0.39553343541003594,0.8210314798118132,0.40542776976092954,0.8450953306432166,0.4780422253766539,0.6023190581680613,0.3297669779607097,0.6153886811471331,0.23814260772451157,0.6373103959070112,0.40488885187571155,0.7418612431105144,0.2666437394454448,0.8507294559835769,0.9660079883804247,0.7677513313461524,0.3004272092318923,0.7907247644820642,0.2985565766330824,0.7093080267158357,0.38352846632596926
24,2.8083998491068702,0.7268147469658804,0.5886003863527904,0.12948144328160646,0.45415053371803255,0.2286683744713214,0.7558846714618236,0.09142013899255202,0.8100109046840185,0.4187118029020186,0.9518027064709864,0.7828386688201842,0.9353998509857145,0.7437200221124725,0.8898285478966571,0.5395103288161046,0.5327496158980112,0.026107388764267103,0.649130206330183,0.4460197151077183,0.9752523442820473,0.8384402384004285,0.7108647189372391,0.43577878332055525,0.7408541985606996,0.6526020463031605,0.8093642428071657,0.3196032563358951,0.5911835155892209,0.11708098455506302,0.6735239837142923,0.04180061148504589,0.5481796137823527,0.05855359213327024,0.6428033399161144,0.07546585941429376,0.5401025882326684,0.055761861062866486,0.7316678768314514,0.23293545873052357,0.8401344016129955,0.2693311071590679,0.6415208068367982,0.2400477082031256,0.8265038123328597,0.2193194824013146,0.86781670916147,0.9713921357436562,0.7831333963649328,0.42737600159549105,0.6680993988212346,0.12167793860214285,0.8897247256213924,0.6616454114267336,0.8947735591272081,0.48378878126725605,0.7386318761603837,0.3566325607928939,0.6907051282051282,0.4031332382709248,0.15078230523580363,0.7679135661612574,0.39566617205190685,0.82355473607295,0.3839266843175406,0.810495667053044,0.4046745223164065,0.5822851813355452,0.34642245939681926,0.600058087015203,0.23495970496437488,0.6310190929613494,0.4669098841521649,0.7768932836348218,0.2679406123876105,0.8469433039487986,0.96509748699357,0.7881237827924804,0.3391357643685966,0.8187702199523879,0.33835186574673154,0.7135627417453421,0.3903515874483205
25,2.7270655394892556,0.7536065949164186,0.5213432133308056,0.097075361189458,0.4080467002712193,0.14124231087585154,0.7663356883421742,0.10805851452086639,0.8390108735069417,0.46025578814195733,0.9187778995579011,0.6027366744222399,0.9082169048856361,0.6396930438302673,0.8496228458041193,0.5121713720829153,0.4716274774499533,0.026189343423555552,0.6389714721331525,0.43516763109539547,0.9483220703022683,0.4595119575479659,0.5955840028699344,0.3651841303513869,0.7094617515477092,0.5088359969418005,0.818363216929125,0.4466447011201305,0.5567754545963738,0.18813548478353298,0.5630978564648372,0.035340816844174935,0.569034241178809,0.06525246420904654,0.5779090024998658,0.0742573023495854,0.46448793760641716,0.042943680188945094,0.704812334539002,0.20045130507409759,0.801471861897419,0.3061949750249647,0.6428804828387902,0.25987053054342457,0.8536301327805574,0.2622708282509785,0.8818083740361872,0.9744563630915026,0.8317454454462732,0.40961634231097976,0.5665289009213581,0.10585884185685121,0.8518126933472663,0.6074892328277803,0.8625668118936399,0.4109414170003979,0.7082313202584346,0.3239202374037057,0.6616300366300366,0.37762547516582307,0.12609334048170756,0.7971601722489717,0.4342260829383944,0.7944155061681971,0.3426583243530989,0.7436073417522943,0.3656267780719408,0.5829638262155822,0.3385617988276462,0.4941437824470437,0.17228539126589265,0.6343685602934183,0.4056170713278531,0.7871132392947994,0.34622325043108865,0.8579149559231978,0.9673726519711718,0.7612394375532228,0.3189827950325636,0.7853734714224673,0.30201800239443793,0.6923568880440926,0.37451504428143595
26,2.6104724800283696,0.7049080222883749,0.6948210912014853,0.19810274740878825,0.47059683189433554,0.2189265222154575,0.8204617428889831,0.12239309608845314,0.919590581168061,0.6262763941086493,0.9452368958883943,0.7232310854967755,0.9402990447962758,0.7450421232037446,0.9008087427484758,0.5861837837345514,0.5927007078563423,0.04712147479375617,0.7199779601820402,0.4875118484460967,0.9831182356330872,0.7970385447345419,0.7009623451435361,0.46337332524005265,0.7941641738423089,0.6880015961723067,0.8168217950995622,0.3819361838248475,0.5872163611862503,0.19660928481695245,0.6924931619210785,0.055603120931901236,0.6449617406274134,0.08239603561178968,0.7022881378684915,0.15011674424193874,0.5682248478891392,0.07444353064570663,0.8399394093346791,0.288498486875893,0.8714777160573132,0.35909724632582274,0.6417656202949246,0.25279614779259113,0.8742472204165723,0.2662771685360049,0.8809056410571479,0.974569494538737,0.841195284942339,0.3917254282024875,0.6667756311955748,0.1321337928511855,0.9127178836072676,0.7264940948379163,0.9398216875233744,0.6429686194584647,0.776429277491276,0.395513626708719,0.6822344322344323,0.41506204986214396,0.14866816306139888,0.8872312994974609,0.5718570445069917,0.8207056571362645,0.43716977073188334,0.797651522414249,0.44418341939156486,0.6487066375960514,0.3767797891101533,0.5849527936223875,0.22671240376467822,0.6813079744406851,0.5040634470666006,0.7899087805610514,0.32644910751081335,0.8552409129332206,0.9674160045734504,0.7996953541507996,0.3466276799191061,0.8650914603129388,0.42202245831529483,0.7405049493206595,0.43381357163199413
27,2.560718587350958,0.8062743302038012,0.6328466061751074,0.13980629919328855,0.46713993002751153,0.20270081532743472,0.776749266815356,0.11389144181165761,0.8841751539117477,0.5104617125566641,0.9218498283336386,0.6008565946061165,0.9100659173890616,0.6929537789561384,0.9018725087589908,0.6092946248784193,0.6167436970422729,0.06854327623969299,0.6279386153524443,0.424932308382543,0.9856912357902459,0.8507077383617976,0.68737687460413,0.48604138094520216,0.7137895047988265,0.5660289504472449,0.8376532973029293,0.4475888588457538,0.6055236054047465,0.2268976627567105,0.6094023171744098,0.05093542658267627,0.6330733912423414,0.14435192532926147,0.6636394077883647,0.0740358006909138,0.4971337692155329,0.06371077794057385,0.7339518286976153,0.25546784386233273,0.8529522830037162,0.35617717156574086,0.6654209236294805,0.3056990136282875,0.8438364285820155,0.21624707838259175,0.869271485474969,0.971667364355529,0.8632831438863177,0.5398382519993123,0.6624582134416326,0.16642853429534638,0.8591239837191341,0.6313515219501838,0.9223410562122802,0.604309335570146,0.7498260842138821,0.38225649960968733,0.6952838827838828,0.4115707093925013,0.1384372912478569,0.8434530800147662,0.5014214471269971,0.7817853373386376,0.3600426945447027,0.8100141478053471,0.4341620078345327,0.5586040621868522,0.31509475569953893,0.5778451425801313,0.2528761332344085,0.6250110687794825,0.4363234387092224,0.8110343281868289,0.3700618725814339,0.849460361067504,0.9653791479640395,0.7634905502384559,0.3280703731965446,0.8524152033694834,0.4247691259637111,0.7167894537236356,0.4115125716457262
28,2.5044449349139795,0.7690252652469277,0.6635173629951167,0.16593015177619064,0.4690039905972486,0.21220157188538352,0.799774077266791,0.12839318875597913,0.9273107364554287,0.6094566886024537,0.9236542206038549,0.6787557407472109,0.9131038172990462,0.6921202262301188,0.9267445745145086,0.656752015166795,0.68577307651362,0.0713411164585735,0.7355315302639106,0.5199567849065118,0.9778043899628057,0.6051006691674546,0.7284679930523591,0.4399473401185807,0.6549690764974054,0.523631290975397,0.7607577271458282,0.26959325337568535,0.6458872166082943,0.22403933493161085,0.7205363964398993,0.07657352303264618,0.6179667783337638,0.06640417148774944,0.6610731673120179,0.09924066063690797,0.5344721848448017,0.049466788771250575,0.8470085700647944,0.2775788070442966,0.8534713439381649,0.3431000656815811,0.6406461434659844,0.3179785201474704,0.8767569444591484,0.2193657456960924,0.8753272509446135,0.9732549933618797,0.8672004138401223,0.5196605100189229,0.6546493668033045,0.1284368206293393,0.8805703635752473,0.7000045108888723,0.9134001100889511,0.48354200179426066,0.7687177342180382,0.37228987008478576,0.6941391941391941,0.4094550054179334,0.13933748551883543,0.8811096201576903,0.552705958123647,0.784384440845558,0.39474447472631946,0.8271091705086528,0.481220902887967,0.6589621370401868,0.39389565513076097,0.6268128167290603,0.2086574615568877,0.5749471158313609,0.399631365231241,0.7510753780384398,0.26337405218953613,0.8512517359014613,0.9656288505221184,0.7603174518635296,0.3535606066629656,0.8377978309968056,0.31876337824551204,0.7239293366664253,0.40650183552689007
29,2.3954756358736082,0.7715441569345851,0.6021890873314201,0.14098811234057465,0.43747591666179675,0.15742626557401623,0.7606112228562046,0.14602278750284536,0.8107073294755196,0.4601330706402132,0.9032694692198222,0.6131252570353967,0.8925543909366178,0.5733949235511181,0.8922617122310784,0.5635762518766637,0.6323399071099972,0.06596961332466451,0.7443251638659393,0.5151738983293497,0.9648924511498769,0.5710434421107887,0.6937106711790925,0.425612273139007,0.5707690644634769,0.4075388947685761,0.7198351114774113,0.2921664493165135,0.6495976257862154,0.24840466996241925,0.5703993041200459,0.03951445112971755,0.6216014349948504,0.10588309357655518,0.6082519435113866,0.10650131033050023,0.48701187594560746,0.05485471173059666,0.8033744489628926,0.2593630896770664,0.8127257809134047,0.3583681645426995,0.646952418517707,0.29105157769663503,0.8663504720686537,0.2588899696905994,0.8621143366202808,0.9701207039460219,0.8383573315887853,0.4068104988251699,0.5673665410524631,0.08317146430682981,0.8301015067530362,0.6445742317491856,0.8977365537483408,0.5208148117842774,0.7291438175015528,0.34372199957251853,0.6243131868131868,0.3839008418754979,0.12494135540706741,0.7668459797278173,0.43341527848435835,0.7762351350080976,0.29684011431208085,0.7853833125619147,0.37033335563139924,0.6770156365379837,0.402190219395555,0.601538558459669,0.21847553148059298,0.4971530005958009,0.30703061277893523,0.6944082550169587,0.24875335505075305,0.838262664533269,0.963408582977373,0.7077613086752462,0.2815553411765895,0.8108887622845748,0.35334185963996023,0.6853994050251662,0.3636623278486059
