epoch,train_loss,train_accuracy,train_1st degree av block_rocauc,train_1st degree av block_prauc,train_abnormal QRS_rocauc,train_abnormal QRS_prauc,train_anterior myocardial infarction_rocauc,train_anterior myocardial infarction_prauc,train_atrial fibrillation_rocauc,train_atrial fibrillation_prauc,train_atrial flutter_rocauc,train_atrial flutter_prauc,train_bundle branch block_rocauc,train_bundle branch block_prauc,train_complete right bundle branch block_rocauc,train_complete right bundle branch block_prauc,train_early repolarization_rocauc,train_early repolarization_prauc,train_inferior ischaemia_rocauc,train_inferior ischaemia_prauc,train_left bundle branch block_rocauc,train_left bundle branch block_prauc,train_low qrs voltages_rocauc,train_low qrs voltages_prauc,train_nonspecific intraventricular conduction disorder_rocauc,train_nonspecific intraventricular conduction disorder_prauc,train_nonspecific st t abnormality_rocauc,train_nonspecific st t abnormality_prauc,train_normal ecg_rocauc,train_normal ecg_prauc,train_pacing rhythm_rocauc,train_pacing rhythm_prauc,train_premature atrial contraction_rocauc,train_premature atrial contraction_prauc,train_premature ventricular contractions_rocauc,train_premature ventricular contractions_prauc,train_prolonged pr interval_rocauc,train_prolonged pr interval_prauc,train_prolonged qt interval_rocauc,train_prolonged qt interval_prauc,train_right axis deviation_rocauc,train_right axis deviation_prauc,train_right bundle branch block_rocauc,train_right bundle branch block_prauc,train_s t changes_rocauc,train_s t changes_prauc,train_sinus arrhythmia_rocauc,train_sinus arrhythmia_prauc,train_st depression_rocauc,train_st depression_prauc,train_t wave abnormal_rocauc,train_t wave abnormal_prauc,train_t wave inversion_rocauc,train_t wave inversion_prauc,train_ventricular premature beats_rocauc,train_ventricular premature beats_prauc,train_mean_rocaucs,train_mean_praucs,valid_accuracy,valid_1st degree av block_rocauc,valid_1st degree av block_prauc,valid_abnormal QRS_rocauc,valid_abnormal QRS_prauc,valid_atrial fibrillation_rocauc,valid_atrial fibrillation_prauc,valid_atrial flutter_rocauc,valid_atrial flutter_prauc,valid_complete right bundle branch block_rocauc,valid_complete right bundle branch block_prauc,valid_low qrs voltages_rocauc,valid_low qrs voltages_prauc,valid_nonspecific intraventricular conduction disorder_rocauc,valid_nonspecific intraventricular conduction disorder_prauc,valid_nonspecific st t abnormality_rocauc,valid_nonspecific st t abnormality_prauc,valid_normal ecg_rocauc,valid_normal ecg_prauc,valid_pacing rhythm_rocauc,valid_pacing rhythm_prauc,valid_premature atrial contraction_rocauc,valid_premature atrial contraction_prauc,valid_prolonged qt interval_rocauc,valid_prolonged qt interval_prauc,valid_right axis deviation_rocauc,valid_right axis deviation_prauc,valid_s t changes_rocauc,valid_s t changes_prauc,valid_sinus arrhythmia_rocauc,valid_sinus arrhythmia_prauc,valid_st depression_rocauc,valid_st depression_prauc,valid_t wave abnormal_rocauc,valid_t wave abnormal_prauc,valid_t wave inversion_rocauc,valid_t wave inversion_prauc,valid_mean_rocaucs,valid_mean_praucs
0,4.897931106774509,0.3713696554122879,0.8562329846036727,0.3078257481948906,0.794540075680919,0.28841737195120065,0.6812604951498702,0.014696773972834885,0.8913323728370957,0.14612310481822627,0.9510879929857402,0.6901815412139394,0.9423120404662653,0.6622966848703402,0.9650167912794947,0.36394627420436515,0.8073244031535711,0.040199695149079936,0.5213156745331051,0.010329421933114088,0.9398219200178338,0.2598224843847178,0.4996029312507977,0.027875073622640845,0.5695709463789511,0.037384839330322585,0.6830959436293772,0.08196040866685594,0.9391044127218383,0.7709917458124108,0.9478280728482164,0.5788148657041203,0.851319228958575,0.23148888834692435,0.8838991936262778,0.2031201184816083,0.7711637179534165,0.018230763316200355,0.6621145659354786,0.06015983566078788,0.564712949387217,0.05612973723353265,0.9541194907433412,0.46835396930385575,0.5818348872523478,0.13462556116265845,0.8697256206257077,0.4479421486085133,0.5790161147304005,0.05575111807560886,0.7049499830264712,0.3522310393541641,0.7106029316363257,0.1839919099985584,0.7317923543170249,0.031780121557443176,0.772396225767753,0.24165449055292273,0.36185436386673625,0.8579979430289486,0.32582475334806854,0.792919751722762,0.28576657838333575,0.89764582014989,0.16913267513559294,0.9474291762318306,0.6584438938673505,0.9551756165457651,0.34086104004028384,0.5256926295467056,0.028343616511065275,0.5532483385947262,0.03797349859272501,0.6765868984987425,0.07461898200947192,0.9334328227708806,0.7502187490924371,0.9633073484911308,0.6487654855378622,0.8305163896120075,0.23230325445522637,0.6803221530944302,0.07027649993295888,0.5721517327669203,0.034177267418575796,0.5754885255285243,0.13708379972661,0.8799554840110749,0.4444004886088347,0.5666855239637194,0.052310174655581035,0.7035223813788922,0.35417904808078404,0.6756832976515209,0.15350413316337394,0.7548756574215818,0.26656577436445206
1,4.380268220300156,0.4224739758018434,0.9253867998848357,0.5212533581034903,0.8352759801390703,0.37453677586395184,0.772961608669643,0.019754148722409243,0.9122139915055135,0.1959299113291231,0.9607126521227715,0.7613246207547885,0.9484850073032912,0.6775574454833307,0.9863394907790108,0.587096965808119,0.8525407874386632,0.06472444872312061,0.5875828761355969,0.016361390400033614,0.9626708961587499,0.3416093132910293,0.5221662977338271,0.03030557882691251,0.6051151881232366,0.04513854769941547,0.7181957755240745,0.09549736439151825,0.9474973511923783,0.7952273207445115,0.9692755394192062,0.7566193853211605,0.8704303692049008,0.370231397116296,0.8532349387117338,0.1866348663717987,0.8637449027873516,0.046330487061332186,0.7609378655931476,0.12185207697298725,0.7772083685714022,0.1360168603799603,0.974455852086378,0.6952634717320918,0.612035017410304,0.15065702616019358,0.8933310327320036,0.6222776554949717,0.6374989142846286,0.06913057621242683,0.6934773013559506,0.3493838207726374,0.6916554426580704,0.16663026866242703,0.7898406667719897,0.043003721253374816,0.812010033862879,0.30519810383901524,0.40515763583513453,0.9280058454218132,0.5150261917390735,0.8286318147374823,0.3618770240397519,0.9168751678917128,0.22082031593189977,0.9538641077361039,0.7135921611152012,0.9851701437400838,0.5911695211945861,0.5582215607430019,0.0354424587192733,0.565827240366705,0.036595182048981954,0.7158234498798574,0.0975895324471939,0.942526292722473,0.7851105138187439,0.9717689009182119,0.7807315314593748,0.8476720762239881,0.3511563675478987,0.7725571268031283,0.11175005729701483,0.7994650543374429,0.11021893788916548,0.5962629956174856,0.13846900272949259,0.8977417170661826,0.6015201522889061,0.6157071081807246,0.059286763109199156,0.6976961660461916,0.36077893207910205,0.6561066976754294,0.15298655216751528,0.7916624147837789,0.33467339986790967
2,4.202889503116166,0.3720156020968423,0.9413726204287145,0.5815541116518307,0.8373651564589797,0.40281772402141736,0.7790767826607141,0.019522186745568514,0.9379547866590874,0.36312542485987337,0.9687300652271306,0.7987203712073758,0.9434785078799574,0.6616722515397184,0.9863542199715502,0.6029067287871205,0.8946070777458816,0.1504035537936334,0.7378394729376894,0.058061511533942275,0.9732612247524062,0.5792994935807618,0.5737438293540907,0.04146312923283435,0.639866890555579,0.08044881873461296,0.7269618158176906,0.13828532837422305,0.9558650387771048,0.8222965503977827,0.9818864533733228,0.7881194794076215,0.9161892329161466,0.5241067326638739,0.9067266466976821,0.37109929707793643,0.7939896833746541,0.028796484535127422,0.7666928863960834,0.21487453047156457,0.8201883621878137,0.21414232064201766,0.9737637722842747,0.6414111030976964,0.5549771642114821,0.17476861107632732,0.9251548939343455,0.6798745465460679,0.6327759095616239,0.09535196785645378,0.6964840079134726,0.38513435857119344,0.6465046411821531,0.1904412243006196,0.8028919269880046,0.05062836369253491,0.8264704840832457,0.35775282238517514,0.36118357307892973,0.9472529537500294,0.5958698860228516,0.8314508849568032,0.4044313305811848,0.9353723725510346,0.3659149025040538,0.9633273197419073,0.7625222891613973,0.9831912947307582,0.5854928969466479,0.6054224436240523,0.04439753218548516,0.609244439843948,0.055287635405874246,0.7209306500311741,0.13601261303125267,0.9523624854396779,0.816442629004594,0.9795805460595108,0.792772332684046,0.8943022353093059,0.4862763815817785,0.7732239200251386,0.18694583711590804,0.8086520343294261,0.17769143279965843,0.5408894669621964,0.15612758628865753,0.9265076330101305,0.6596638805409337,0.6039117985111883,0.07914888851681727,0.7013142994948545,0.3989496187134152,0.6081155656020083,0.1660977917320476,0.7991695746651746,0.38166919248981135
3,4.078172150263801,0.4196417480311048,0.9367399347680294,0.5950169082893361,0.8510974332851883,0.4371845009047971,0.7752097587341766,0.021163115751991486,0.9490040147135329,0.5531152920754197,0.9614005600927507,0.7335054646514096,0.8683361166075623,0.49926014779165007,0.9772839960698141,0.5240539257803221,0.9294199207558814,0.2167934817235961,0.7032449299778268,0.03625057042505473,0.9534230431500624,0.5853803356748799,0.5728712263297244,0.051429068438028226,0.6186024129469277,0.055004459013243516,0.7314505152006896,0.14022396826292335,0.960665220681729,0.8271006700670005,0.9762784069351059,0.7896785724439466,0.9373933790595916,0.5199895601571153,0.8987274141616262,0.28402311849056,0.8438679034976759,0.0341311954239549,0.798504158854835,0.24392681579096664,0.7463739468117363,0.20908790990342452,0.9485741071308669,0.5859075911310018,0.5322993275172258,0.16061417149180604,0.9285182225824786,0.7021861226216888,0.5864110685539257,0.07465207611970451,0.6615366251682593,0.35625002828327634,0.6171784391101773,0.1539996981306977,0.8184761038690809,0.04664789273039795,0.8178847476506103,0.3495028393173405,0.39956771260341356,0.9390827855347622,0.5790062329597122,0.8442841838467771,0.4203502216166051,0.9483135108433256,0.537420817853618,0.9570489970320363,0.7047918432692715,0.9724653849425926,0.5006372512588141,0.5976676400527103,0.04962220452542834,0.5748214942219861,0.043449881097638934,0.7238115336924769,0.13206071232785585,0.9551195080513459,0.8072188049358775,0.970388369284729,0.797467415221803,0.922159129858954,0.49465919069936054,0.806191808952662,0.240397760096979,0.7279314310545697,0.1634160065419898,0.5222270605129913,0.15063604240193518,0.9291448594931723,0.6881742641714229,0.5635105672985621,0.061280676842078816,0.6651857131860656,0.36733855635932183,0.5742948042209591,0.1308106867884567,0.7885360434489265,0.3815965871648983
4,3.982250802783663,0.4804104245857246,0.9225086004042364,0.5511300300223909,0.8792613661173624,0.5050279392574971,0.7869143634240783,0.025958935132025476,0.9511597879688549,0.5583940085768613,0.9585219947946284,0.7474630058600571,0.8654472149187189,0.5234418489368378,0.9780620962175177,0.5213581380105431,0.9206482885847246,0.2554438486711549,0.6411208436496312,0.028018439318168248,0.9596083355006384,0.6306246073747487,0.5827267018390296,0.06456949891537483,0.6819251211169773,0.07306228457049448,0.7789975190077801,0.17895717245193454,0.96364520947753,0.8440934933017762,0.9739804209490832,0.7636276537869552,0.9012684218522242,0.4253532487255153,0.8190207222930339,0.2578434902965024,0.8893103318682556,0.046888705195286734,0.7774846590907779,0.25879666173756616,0.7245034667230689,0.24206755127627408,0.9538143023676756,0.5308646994616184,0.580330641464031,0.17391133005003695,0.928233931489679,0.6469755852949377,0.5570624945624946,0.07846461100498726,0.707887887359894,0.37641860038362907,0.6534848670387612,0.20324930397793112,0.8222356359264641,0.05078487424237073,0.82070982318545,0.35417739132716575,0.4603115450547812,0.9230655915385674,0.5471631760974046,0.8675959841418021,0.476600127504925,0.9505773672055426,0.5552634759917164,0.9528711504838296,0.7115439787719059,0.9729799953165412,0.5188661543583658,0.6074418564608028,0.059251041953960894,0.6393706520846791,0.052490198152419995,0.7679297988749325,0.15730823618738296,0.9586706718527755,0.8191181418663233,0.9620109686881588,0.7708064508566798,0.8854637561283358,0.4152249968529764,0.7854567367134009,0.2387282007778529,0.7144214307923414,0.2133588133082286,0.5652149981970669,0.16059329457121868,0.9280363782556876,0.609151657791343,0.5422743835229442,0.06611857334029468,0.7121137491874201,0.38959889406661585,0.6085132095156329,0.17978798475183566,0.796889371053359,0.3856096331778584
5,3.910118000264085,0.38779160766192144,0.9402641505316578,0.5721505541463121,0.8638122825926718,0.4679962090633518,0.8146915748351071,0.022981270518492573,0.9545550284246132,0.57643151297867,0.9642462065822208,0.7689989377761433,0.8923825274388812,0.49514439543280503,0.984202793066551,0.5927291776774196,0.9268034235528759,0.18400116565734667,0.7100529789737287,0.040744841662148264,0.9720577361010801,0.6110423468958983,0.6519093530843731,0.0672652352669788,0.7447504904118867,0.08626428759073076,0.7805025060825634,0.15849200504312833,0.9410338176944991,0.738874427633546,0.98210204143463,0.7781478838374368,0.9261009669548141,0.45249837874571053,0.93400457810793,0.30060691896949854,0.9191397490032001,0.05551588763664482,0.7896862802253503,0.22905690424955666,0.8663926390962525,0.31049344987375543,0.9647591538823761,0.6398740291147912,0.6153439770635739,0.16557182721677846,0.9263747959557949,0.5977081328850257,0.6068337854052139,0.08231240970313854,0.7263394713369455,0.36492922070919104,0.7076099476699238,0.1865267298013625,0.8188034016777191,0.05297917486767163,0.8490650243402383,0.3555310116649457,0.3660281732130879,0.940261768860881,0.5276878533722575,0.8561963010207112,0.419612673234711,0.9532511948481358,0.578340442453549,0.9602880505636037,0.7407663610960328,0.9819502658783721,0.5646246507329157,0.6873836739108327,0.07314193638985697,0.7000021926011439,0.07915792102141825,0.7723162308139575,0.14871013868246108,0.9381152284873068,0.7287654594341613,0.9775030017424092,0.7613429513150207,0.9050018773438524,0.42045161483711113,0.7980037860083559,0.22596916955116583,0.8386865360769903,0.2412140210225326,0.5938417620456105,0.14965924065424513,0.923552224773545,0.5982422027694664,0.5907452889300278,0.07112251664326039,0.7235464662280404,0.36483460235356224,0.672293978286621,0.15486781790688597,0.822941101578911,0.3804728651928119
6,3.8578570251159676,0.47591364189709573,0.9583707549739351,0.5889660135766508,0.8889364916102783,0.5100407358544689,0.8282935295056771,0.029433735545708113,0.9620276918789095,0.7015504542110049,0.9759650521180404,0.8281244322585744,0.8766815250592986,0.4028368937826712,0.9837333113102963,0.5576489771185266,0.9416982739954347,0.33324296326770386,0.7579839943804721,0.050067396010396725,0.9840446624939625,0.7569178591521379,0.628667405986289,0.07782346741324978,0.7108934767427912,0.11183396027496169,0.7769008610415591,0.20533760112127675,0.9662923552313314,0.8440408687780598,0.9835806194191311,0.8548065338945833,0.9455431138297627,0.5514496408332825,0.8484567627739208,0.3070477881758504,0.9001934308895113,0.0453255227428915,0.809618871922608,0.2835165778065981,0.7793954585145026,0.28067989223731293,0.9546295730063011,0.5516781524064515,0.6226588989352543,0.22328734517432555,0.9429448828653266,0.7174141347971411,0.6765259979545694,0.10709512413947055,0.6798174328071527,0.37589775141742177,0.631137449644948,0.2036078342695899,0.8385228056519947,0.06583277128308396,0.8464264697978985,0.3913149787979035,0.457032123425505,0.9537112724026964,0.5627755696235918,0.87431095465116,0.46558249457867446,0.9578706733516865,0.6555083622979307,0.9717712983930308,0.7996771128112372,0.9809157828173196,0.5271648450959169,0.6510825354957677,0.08125534438906787,0.6758098984213782,0.08761953018398931,0.7688860361338592,0.18715043287620525,0.9603287559777804,0.8162479980067308,0.970579734963442,0.8163670707571956,0.9284157827723513,0.4921269302490697,0.8213018892759943,0.27837868031804197,0.7486624485377027,0.22174219965401581,0.5943930041152263,0.20139905292683413,0.9387541515989533,0.670443921686827,0.647849388597879,0.08296638778639935,0.6798517311235607,0.3877249135598817,0.5908224023821685,0.17046045704668789,0.8175176522784421,0.41692173910268315
7,3.8014559901334324,0.4932299818638046,0.9445053298539077,0.5898367134904183,0.8862615774066218,0.5338353897246467,0.81924221411356,0.03136559792557289,0.9478750910809527,0.6760680349423481,0.953726990527347,0.7419965226140628,0.8485653332465439,0.44240027411787985,0.984507693784075,0.5764188906794667,0.9494759530367644,0.3761645158617048,0.7224205395801693,0.03774007617549685,0.9673299375363041,0.6926770961884022,0.6854465935341625,0.10143189628840374,0.727466006580018,0.10416003326804746,0.812559211366221,0.23031062098414934,0.9612045592403607,0.8227678817192727,0.9842354978198478,0.8122486876095949,0.9478173675975546,0.5508399241855396,0.9097482293598038,0.343527027668024,0.9161847720764835,0.07364428299494992,0.8299504531420598,0.3586549224548475,0.8215844526711867,0.32608221632490336,0.9573774235834156,0.6010522813803474,0.6360133288903699,0.1947304945621846,0.9451886983076346,0.6960759523613894,0.6175661354232783,0.10223225317095319,0.7362993813948385,0.3997771022597873,0.7296818560888426,0.2434114513217288,0.8518294228938921,0.07849887799525707,0.8553357055606007,0.3977018154914585,0.46575240366698967,0.9360904463258068,0.52684649240963,0.8697067088538438,0.4863331108948412,0.943158040863716,0.630042193722081,0.9467216827710335,0.7123958981320898,0.9789239972881548,0.5463612180496834,0.7053800160455344,0.09708387168227847,0.6833623895477173,0.08065271106172335,0.7933825229251754,0.21461954946881762,0.9562170014809092,0.8060737332838644,0.9770444601353397,0.7827278502009654,0.9218033218720824,0.4941534252842854,0.829464138298868,0.3478718746598085,0.7970383190418929,0.25694766456072743,0.6049087217834664,0.16291448738953107,0.9363584689977715,0.6492140110148585,0.5960402842526442,0.08234360640128206,0.7320571433402255,0.3991625657354362,0.6919512155362597,0.2065880019429584,0.827756048853358,0.4156851258830479
8,3.750521334081652,0.47340438746863434,0.9367808006014532,0.5994030662477794,0.9208196237539179,0.5805559128067908,0.8121791345360398,0.0245790317042553,0.9692815975813639,0.73702924919712,0.9662297407808604,0.8066129387268228,0.842884207568088,0.4292142973639186,0.9830819722658953,0.5586102508810087,0.9408204808435146,0.26484397795806486,0.7526454429141266,0.06051991151333812,0.971123612509413,0.7352234309078713,0.6608755526327784,0.1062215057841327,0.7004257978013927,0.10639276450329371,0.7933956219564122,0.25361525440177757,0.9728059448270601,0.878793719442722,0.986662614958273,0.7939114774356242,0.9565344731183133,0.6553295415266109,0.9227526307026664,0.4390268072116076,0.9240381385536136,0.06147054786947604,0.831493459773176,0.384510514934087,0.8374199375635204,0.3175279234054688,0.9582657694017714,0.622645701151533,0.6230114928133575,0.24658537832355035,0.9565042386129567,0.7807922861992375,0.6498109176680605,0.1286895838890842,0.673983148875403,0.39167432373414834,0.6221018871477901,0.20232971972818925,0.8687497254536277,0.09520450558756816,0.8531362209338832,0.4170856897198178,0.44294551688156814,0.9318483210351296,0.555490845863819,0.9067187117708401,0.5202483777693422,0.9615149827015197,0.6756309145580321,0.9598400134636815,0.7742579215661803,0.976133217211623,0.5408745172640835,0.6773281763781968,0.11078890047825915,0.6398637323884412,0.05989596761851472,0.7684616839583318,0.2192448791374172,0.9655589846699563,0.8510310040263497,0.9785326962982518,0.7678941030608887,0.9314489371171584,0.5784374772635824,0.8325372266727942,0.35288425397370743,0.8015733695957563,0.2189955172373935,0.600619348498144,0.21462872292696739,0.9473543022134479,0.7090220026812304,0.6231779048768981,0.09558616450226762,0.6726596472212545,0.388107314169632,0.5834860949607138,0.17725065535326723,0.8199254083906743,0.4339038633028297
9,3.7071508835515354,0.4784228963255571,0.9465908385743336,0.6432722697621458,0.932977652217879,0.5984038569738631,0.8227336727686805,0.02627963920353009,0.9689596624273242,0.7142561412047931,0.9720113108755568,0.8109251334200349,0.834482243228994,0.5059573733992913,0.9770157189428222,0.554671543411741,0.9471005948768327,0.40277161957223806,0.7522070927241395,0.06612800469219099,0.9782639841017978,0.7685328686363043,0.6516072963678159,0.12449953978458275,0.6964996670994617,0.12582352373659889,0.7808771547255079,0.1900794505744038,0.9660636651606089,0.8353461144159328,0.9818214543757342,0.8173473030398314,0.9575363132530339,0.6268489683360623,0.9286110589009415,0.36859525022596706,0.936715780893328,0.0820620318079899,0.7902858616489857,0.30012612664101684,0.8272880875465389,0.3308862715724138,0.9356905747981547,0.5775958921073061,0.5034396856528808,0.16531347784768807,0.9565697742517446,0.7278127301965006,0.6223838545267117,0.1334104601138692,0.658316864852784,0.37393563189939016,0.6045943904146646,0.18291380852763436,0.8668810376118897,0.11028072402015116,0.8443527886229313,0.41348428722679537,0.43787731981814115,0.9380031274013374,0.5855382246239343,0.9148037559889876,0.5181805932806197,0.9585002334708919,0.6444671975900095,0.9663587974379027,0.7808281740671802,0.9688913972581594,0.5172339628777972,0.6582675127430707,0.10548606502319258,0.6308327652116804,0.07381765990334173,0.7429168388827786,0.155662959097968,0.9569787111993022,0.7972169558804105,0.9748192207687699,0.7705991771752019,0.9323373261543054,0.5421507056044508,0.784034035271659,0.24939235934953816,0.8030716295239058,0.26058089460739825,0.47702718079258455,0.13878048542560806,0.9465267757182783,0.6529261699945352,0.5927803642061764,0.10446206911977374,0.656473809895656,0.36639638605247304,0.5673494028277384,0.14931852016992408,0.8038873824862881,0.4118354755468532
10,3.664760283951623,0.4417778440287198,0.9532364304404737,0.6472032615640495,0.9385762505919293,0.6045810125797189,0.8381686841077703,0.03661295066926852,0.9652792154798592,0.7298917254617625,0.9588974995300595,0.7946365430185947,0.8132751813224339,0.48582551700725896,0.9770403662204686,0.5502800405346205,0.9486905503228037,0.432363078538418,0.6998607339993658,0.05847978484525872,0.9528086008331513,0.6872947571527825,0.6561605726109073,0.11837808785897917,0.7014603226145678,0.08793635262282187,0.7959615431446909,0.24525354402181374,0.9722403649964438,0.8725854141454272,0.9833212060608055,0.8496643423766391,0.9389163763746914,0.5868730605370431,0.8353208799558225,0.357316840058039,0.9414436506044993,0.08404517424854867,0.7919510088725161,0.3258184317367746,0.8526011485666798,0.3194735160163904,0.9457865466870348,0.6310197745727981,0.5550832899100747,0.20507286700840485,0.9535783158758292,0.7430444200194103,0.6253778218063933,0.11940711099997495,0.6670060305293606,0.36263255786170356,0.6203735428106159,0.18348247432484158,0.8432033492730784,0.10345458418443194,0.8416896105015677,0.4156528601468806,0.42021316240590295,0.9448812292163713,0.5925767723999957,0.9175708642432794,0.508154235076611,0.954444510549459,0.6515945552080685,0.9507984012523115,0.7618260298196762,0.9705260032819294,0.5561798169608193,0.6635202460530515,0.10088741578102149,0.6237855921629296,0.04688233350319375,0.7582227647516235,0.19401535253409913,0.960946014861772,0.8252128918852842,0.975300088371689,0.8050101461156877,0.916644193057064,0.5041105158715905,0.7759936179585836,0.2865002155494716,0.8219533758143125,0.25701280151505285,0.5220777354151538,0.16284038180404015,0.9426705042822743,0.6815483159288247,0.5959653476057741,0.09986229422076785,0.6639128602771738,0.352844717868001,0.5796790267015878,0.13749720941153745,0.8077162431031301,0.41803088896965235
11,3.626518117191214,0.4488584134555663,0.9541076606201222,0.6664336553196923,0.9179120632611253,0.5938730710620171,0.8298035327179385,0.04212010175329277,0.9745597055822255,0.7221169544486186,0.9727246361595439,0.8397468014072879,0.8129390850919326,0.4830522648543848,0.9780095342256266,0.5911547491324787,0.9403602084798632,0.4196472427011848,0.6777630471014984,0.06225440021635684,0.9626001226981635,0.720625302287343,0.6384738267136033,0.13421125037245846,0.6651282405681285,0.0772677375431764,0.7969701749608702,0.2525742762781267,0.9742934375094929,0.8782061964846356,0.9757814928669639,0.8025924986435345,0.948304129929025,0.6145718523766384,0.809237914129278,0.33134042320099966,0.9472086450874061,0.11227207105361138,0.8304939187243052,0.41248147713403804,0.760921631387063,0.21829179613067734,0.9467454226436633,0.6269196687367168,0.5401696884036418,0.18551094492437836,0.9528796365516553,0.764801420223713,0.6024545220973793,0.12290176192623213,0.6317752497759737,0.35405943810511636,0.5743855330605337,0.17169680858796277,0.8633274634997823,0.1048371100150494,0.8325677971795113,0.41872449166369347,0.42058582395468436,0.9391222136095646,0.6035510648161032,0.8912106484615695,0.49686545058030546,0.9615753786465179,0.6525037198045991,0.9673807175106203,0.8102695586443004,0.9712929854242697,0.5596009783972528,0.634978350366244,0.07393501094436646,0.5907770017556107,0.04590581875157204,0.7600716652539107,0.18115885834036238,0.9629666619839499,0.8309848185483499,0.9573443448743193,0.7587004125971152,0.9171129200578619,0.49677741438699263,0.8144979544446413,0.331798078695865,0.7375012643148537,0.18778375681724224,0.5020782586439926,0.1496245590890588,0.941668320636197,0.676963811791407,0.5810659720426498,0.10072622259913826,0.6334610769171215,0.3450221249764829,0.5379633111272917,0.15117836445721752,0.7945593914483992,0.41407500134654057
12,3.5891052964980465,0.4701994981491143,0.9605660415345502,0.6877685189720198,0.9400233930187475,0.5979977553435454,0.793483533795104,0.035416591607881964,0.9713087234608596,0.7226584348334635,0.9639577068147053,0.8062822642485569,0.8526664612576245,0.554925065474287,0.9878227011718262,0.6458042063091618,0.9505256763945958,0.438396459674205,0.697515018535565,0.0649618073486335,0.9642772090426915,0.7107396995102738,0.6920421227597184,0.15212009400517124,0.6972973645198511,0.12467106568602103,0.7833222271664959,0.24349008964086347,0.9766013522304929,0.8941285812851432,0.9872412964580121,0.794300724011819,0.958759360283013,0.6709396506290154,0.8958317746936812,0.42285412960035734,0.9559060906045087,0.1388385774556091,0.8261398768477287,0.3714532240541309,0.8107895425446364,0.33707831409361105,0.9643633638358057,0.7195432520332942,0.5331989202704244,0.19106429625093166,0.9653127009526263,0.8133496457814028,0.5819456890885463,0.14544730287492844,0.614201327927402,0.3179659062041558,0.5678488520426122,0.16004317490875508,0.8717022260412534,0.1526755602317617,0.8431352056775213,0.44129312563218526,0.42028769471565924,0.9428470761146401,0.6094747517629856,0.9173682422722166,0.49226626513619615,0.9577485293136678,0.6474040139816082,0.9573614623397898,0.7694022133700471,0.9798310885182466,0.6177092191422675,0.6805384939474112,0.09606412274637902,0.6319321252271,0.05405207147819487,0.74428814616069,0.18497122043024683,0.9636842517311417,0.8420573007203616,0.9800542987846317,0.7471686901418898,0.9230377754989054,0.5462965502180598,0.8091887168429437,0.30832419405755374,0.7738146345849113,0.23612270994724283,0.5004802042987977,0.14738891484254146,0.946298741229306,0.6935200239388873,0.5621678644216632,0.11720165287898093,0.6116505174037841,0.30654285136653536,0.5271456361324538,0.12156434140334085,0.8005243224901278,0.4187517281979622
13,3.5457918624463773,0.4814041887158083,0.9552916212559626,0.6456651502109465,0.9467695423339082,0.6767810902387815,0.8549552495465325,0.05625384529965035,0.9689923657508647,0.6741794175535273,0.9660752253063756,0.845345517774213,0.8500252279462939,0.48555079380874555,0.9868138865540867,0.6720358226695761,0.9579209430140818,0.4501388907245751,0.7280746105537255,0.07078093831898674,0.9726992508524986,0.7566326432940189,0.6981420943825384,0.14853523188940987,0.7879849722426251,0.19447230110046365,0.7809165428753386,0.23667881676936645,0.9742397189635833,0.8791039990522507,0.9897278278528692,0.897269366268912,0.9632801911966168,0.6567949259626316,0.9443467143314004,0.5035885480297332,0.9514651050581949,0.13682683380562527,0.835144292433404,0.4118841422228947,0.8189371245288589,0.31065192606004843,0.965976685470853,0.7447561682058859,0.5699928659127047,0.20329761083097986,0.9728083972415184,0.8434479561734083,0.6533828319542605,0.15630666648471525,0.6696839678315462,0.38549817969384614,0.5903228215329531,0.19531862135031625,0.8870354771712283,0.148401247662504,0.8607779834849935,0.4587480241280004,0.4480882462547514,0.9414355510367067,0.5574795817635813,0.9180484392407258,0.5599977262038706,0.9516017545472738,0.5751341469146256,0.9564197676676698,0.8055827127448076,0.9785841395635613,0.6237215182855687,0.6661969231530821,0.10154000548428341,0.6761210693162807,0.09467166351619592,0.7343970451217889,0.17400452588993054,0.9601142290199659,0.8230925832237123,0.976204904555141,0.8427360069186818,0.9246423042299219,0.4933915666767305,0.8009149076361566,0.3146560991461034,0.782534848263487,0.24424275059260805,0.5332026522028565,0.15076935830497076,0.954045514668255,0.7235066394370323,0.610986978966022,0.0950084661080126,0.664384101062928,0.37206874970195813,0.5489954030233544,0.14848179332338438,0.8099350296263989,0.42778254967978097
14,3.503796121039979,0.5151176368288987,0.9276260431850601,0.6296351198828403,0.9295054241120279,0.6618427893585562,0.8601811369096507,0.07129248970567495,0.9671216866046942,0.7940175491440656,0.9542023149158907,0.7701990776637999,0.8204065082804357,0.42832190325609704,0.9851832298687956,0.6485488391262886,0.9535061079318534,0.4073112263417768,0.75858994621695,0.0947830374530029,0.9796096313527336,0.7623062694132937,0.6871079923957502,0.17137898550389025,0.7418854447307599,0.16138164388813872,0.8216040035333108,0.30244856573617385,0.9689522472551527,0.845216773828557,0.9758618108237569,0.7898709575449475,0.9449091069234253,0.5621073370226666,0.8680520443577604,0.33138886265118256,0.9012664453604714,0.13590374730190455,0.7947865738663018,0.35961544240440707,0.8257816700911625,0.3632523375920134,0.9646301960902097,0.6804028386571288,0.5370653674725875,0.19926008276366505,0.9454693845028135,0.7305779699525274,0.5971642846642846,0.15053527071562187,0.6616954807403039,0.3802510044589876,0.5635634469609415,0.13393312073563268,0.8871807459184107,0.12926063802988738,0.8452928990764997,0.43314977333824917,0.4542744279645226,0.9050593770028622,0.5149980030841907,0.8958590767754364,0.5456180168602928,0.9463757925840991,0.6966648715336939,0.943212667811065,0.7303224259909531,0.9768087666628952,0.5557043270314524,0.6607136227233179,0.0951929487970935,0.6666160158805512,0.0879810084731447,0.7792596341779512,0.20993866010402282,0.9556787817327222,0.7889792586009303,0.9608075729777923,0.7241610423191901,0.9090184188484627,0.4531403885486722,0.7527293726836758,0.27153689793028,0.7804520066081522,0.2340691415005207,0.5038546363118293,0.16349176032351964,0.9294671042220205,0.6122241052701983,0.5689795352590996,0.10789153002174343,0.6567025781422763,0.3534288506323031,0.5334998967582077,0.1057028275064033,0.7958386031756898,0.4028358924738114
15,3.4540958416979937,0.5182728379419145,0.9517562917422238,0.7162016903375427,0.9168845665904627,0.6481237680581478,0.8730630738069911,0.08259107929349695,0.9702449612770581,0.7883632705214885,0.9681932857199204,0.8043094213971754,0.8255826932613872,0.45569266465547986,0.9851526909141336,0.6627267587817648,0.9636305880886551,0.5276537965061904,0.7411405274354022,0.10355653004833384,0.9784328300050474,0.7823416574181017,0.6973862177176391,0.22272289735126138,0.7583783074480006,0.18458221944589814,0.8010028296742019,0.32366500358704575,0.9812616579346561,0.9120972889328034,0.9760440751751066,0.7891753699618422,0.9502653266867674,0.6292455621839496,0.8844353912180415,0.3783224403057306,0.9147091510446296,0.15727748959098012,0.8301833933603838,0.4537063069824232,0.7987263215354095,0.3757420350516256,0.9550595406131578,0.6967356927104849,0.5456300293638139,0.20589553140407996,0.9617252970015653,0.8214608572744979,0.5893992501135359,0.14684534352603199,0.6702941385255778,0.42403161458032873,0.6043049629817796,0.2059608447995601,0.8836489043191442,0.1440587269707725,0.850982826057581,0.46826243932137174,0.4474919877767012,0.9251692051635678,0.588535670000986,0.8794248434014835,0.5014298556055736,0.9528697088194304,0.6534074345107255,0.9611266827318076,0.7680955283825677,0.9744034510249671,0.6269406523937756,0.6745624471000468,0.11490712495842119,0.6583231394377048,0.08895852606741443,0.7456795939669485,0.21555582049550315,0.9648278040692808,0.8451122211968928,0.9540337186325891,0.7250132160421853,0.900876592566971,0.4590411594593955,0.7828626057872061,0.33930083322226134,0.744931314924909,0.26719126003807064,0.509795962816711,0.16191834442045422,0.9356312979926261,0.6753474132652078,0.5533812787147204,0.08871401835340753,0.6610329788460007,0.39001552627976227,0.561297694991143,0.15133658115410825,0.7966794622771175,0.42560117699148403
16,3.416611142728448,0.5517130009192318,0.9710525994875716,0.7347246852081216,0.9233446477145892,0.6558709749853046,0.8986770100195621,0.07517944525095226,0.9778496844502185,0.7663027070753956,0.9826218554924324,0.8876408643215323,0.8996938179625078,0.5439710146569288,0.9894295081427349,0.6834799087377715,0.9790129240784096,0.5322229302676679,0.8250738624412141,0.09843093515890525,0.9759920744598426,0.7405918211908287,0.722357093021205,0.21871546585071666,0.8070374044960018,0.2307507740570263,0.8425901573533525,0.35009533847890845,0.9783879435173101,0.8913386229203669,0.9953949048630106,0.9253153875736722,0.9807412133216751,0.7920554115027919,0.9499030858305553,0.519899655489619,0.969747026056972,0.19927848863460712,0.8701792865908431,0.4703991431631749,0.8561387604591967,0.3939685401120671,0.9773519829158046,0.7664707389470446,0.6142967556675738,0.2577800811972441,0.9771780814758194,0.87493233563098,0.665318406389835,0.19693920465786563,0.6813762599257608,0.44159250020771823,0.6307966497434625,0.2525563653058426,0.9208482230588126,0.23445682726177777,0.8837922673680102,0.5087022284386975,0.46724304986211523,0.9511518031213614,0.628478013762654,0.889699297593003,0.5214110991884342,0.9551321228904237,0.6520244586619726,0.9747045496775777,0.8493080437942314,0.9846671543076856,0.6201911323769228,0.6858572765314958,0.10601400256768519,0.6785836663452551,0.08683010292762056,0.7826259045724254,0.2134749411916291,0.9609903543353178,0.8090252269437198,0.9831107521505331,0.8537874862341712,0.9336763473117446,0.5321143509936247,0.8175506899802407,0.28867719053898705,0.7959088644392249,0.25616749843558995,0.5709774497826394,0.18148072388778375,0.9487970647441208,0.7085828441313924,0.616284436995343,0.12365906952579027,0.6682911592630116,0.38382017778743127,0.5836594324961693,0.18083479451631826,0.8212037959187541,0.4442156198592199
17,3.370169926180146,0.5229932175598122,0.9556167322270951,0.6658474302604718,0.9328719163466589,0.6544713439002204,0.8299507773864503,0.05027928098074203,0.9745565384374901,0.7966873058595313,0.9683713129461695,0.8148753916536137,0.815484791984094,0.29558765548105964,0.9902339407420786,0.6777094612947318,0.9654287999809172,0.5031463126143281,0.7646473418205186,0.10292656577915901,0.9633634520774865,0.7153559826931307,0.6826743029874931,0.23552261297327623,0.7903876245581917,0.1765093693297522,0.8051172217167255,0.3148780186882919,0.9849968201473134,0.9271778390446408,0.9941251080924519,0.8472140489003176,0.9708551672273845,0.7217538965767197,0.9342771036959385,0.5153563803378781,0.9456878555560405,0.1969391426121276,0.8346234394910932,0.4029801006142752,0.8100053923430803,0.369767611165534,0.9720327018694394,0.7173103611938728,0.5227553902614117,0.18949404527755515,0.9716471302215017,0.8549901346186883,0.5683979166122023,0.14449811671560983,0.6687188305445941,0.45129091231511176,0.5897923292900296,0.20794545694367844,0.915353943256563,0.23645010328026586,0.8563694030303858,0.4735912918927624,0.4442870984571812,0.929425927230874,0.5561838927119952,0.9011717868502379,0.5182140264296939,0.9476138193133612,0.6721108255522092,0.9596816583025551,0.774195544048424,0.9852131192975162,0.6135817204301126,0.6569381870267926,0.11697974392012922,0.6742674290119884,0.06946833895648552,0.7466058831358978,0.20550202183226307,0.9655525642263859,0.8459260664151161,0.9798109208958072,0.792141634962608,0.9148202638999131,0.5058685000610995,0.7786246502925863,0.28022348405551717,0.7801051160734689,0.24745651984068845,0.47810681306987823,0.12475411785238125,0.9433155016118839,0.6924472465122334,0.5230316728709286,0.0795337928680773,0.6536256975062192,0.38652811050089986,0.5482555397372224,0.14719187656742386,0.7981203639085287,0.4237948590842977
18,3.3230223921064335,0.5258006012272987,0.9272869386851028,0.6201682562249863,0.9092836016724307,0.5809283213281607,0.8545428009763736,0.07226651045282668,0.9691909355091685,0.7433270431827318,0.9593473859880021,0.8090579854883337,0.7642502284425969,0.37345767335671676,0.9863563553828703,0.6567626408919098,0.9704579054886135,0.49578383105321977,0.740053159086801,0.1275708963282797,0.979644247821292,0.7863844065284927,0.6793108580673846,0.20738655774542808,0.7323929993612047,0.1395986720137672,0.8087240508655061,0.31349930815898797,0.977522861004752,0.8944996053315374,0.9738095534486443,0.8421617091990217,0.9484444605004114,0.6269825563351565,0.8783685971721881,0.3917629713975759,0.9330817591858371,0.1892992938405849,0.8105527115881349,0.3666895279430849,0.8279256077109148,0.36832814679791875,0.9670433827405902,0.7150888314815427,0.5601087109665905,0.22178708494496935,0.948395394737456,0.7886661003160368,0.605487167987168,0.18981373809761476,0.6503241426882175,0.39648204389285785,0.5829760319386429,0.1662246158081384,0.8868718667997334,0.23029140653615654,0.8456205079932083,0.45608406424726067,0.44123127375717375,0.8982962038314022,0.5096215131118715,0.8828546894040349,0.42617448432575006,0.9392791789036063,0.6017205755071717,0.9467823488643189,0.7661348645223773,0.9794111997810879,0.5888047274960031,0.6320813296593257,0.09063228580467156,0.6240548231871139,0.05483242613228697,0.7379676105277169,0.16335472121525654,0.9564251994544637,0.8138211154736767,0.9401901291620195,0.7608887666592118,0.8861537974368602,0.42525777460289116,0.7535043022476381,0.27119249789939526,0.7816698695976294,0.2558932236794349,0.5170400818506414,0.15032896598877768,0.9207922964363034,0.6304399303304907,0.565925954852957,0.10449743911815572,0.6386606990701993,0.3384104820321968,0.5423566297531978,0.11934587694021909,0.7857470191122508,0.39285287060221324
19,3.277600979385031,0.5390176641574123,0.9481477178859998,0.60283678215111,0.9431010081274023,0.726873405385973,0.9022654135642058,0.11660097095518814,0.9784351771292101,0.8324710896037927,0.9743800013204044,0.8408941839827891,0.7883183644655368,0.48938967886964724,0.9758514052164241,0.6490119806375434,0.9627205422747566,0.5558837587558118,0.7969065579812926,0.12143596337861186,0.9691707498090204,0.6829472047483696,0.6471712522035933,0.19389903186396298,0.7073279545334614,0.1647310377023389,0.7734867201976529,0.28363759746865097,0.9653207566860932,0.8152073496236198,0.9656080129013489,0.7670725627015129,0.9627031861788844,0.6664294057152531,0.8595738750735499,0.3538933095801215,0.9359520014080434,0.2565696261961359,0.7830968437697559,0.31933282910178207,0.8658384482448486,0.3787148808561869,0.9480759197779829,0.6901107499569672,0.5450630684626377,0.2065333813535472,0.955748400078771,0.7980910787798372,0.5856946571232285,0.13747835315916013,0.6307818745938925,0.40001141919576316,0.5591939879179137,0.19368180988703512,0.90500248536716,0.20123846988178415,0.8457383845293729,0.46092510783305546,0.44950436014012074,0.9224327289932251,0.4519647145747466,0.8994145816557041,0.532855062866175,0.9507805499817009,0.676451467812723,0.9664393989790256,0.7989672719463309,0.9641682519385046,0.5824613665806786,0.5937114096018157,0.06891194276945818,0.5997671763529496,0.06132900127238857,0.7122851968867997,0.1554162316189055,0.9417752471596397,0.7189823503556687,0.9219887997103019,0.6742955160616227,0.8892492399280241,0.4258382163259689,0.7273925617413812,0.22384642224121068,0.8180038435171554,0.25350364762907135,0.49958752389201566,0.1389058485274873,0.9218119000889995,0.6229172196800148,0.5413997708275504,0.06738471029209916,0.615383424302249,0.3359719709822411,0.5202352826108219,0.1463808078493341,0.7781014937871036,0.38535465385478473
20,3.2275415050894876,0.557377456460709,0.9607483205485233,0.7550172375754283,0.9564764589744951,0.7800320986520649,0.910786753942714,0.17428631855703042,0.976700337842394,0.8329963662610229,0.9693053535849382,0.8412185477314419,0.7824740314167506,0.4469022039318873,0.9881348828701163,0.6951425924592254,0.9806065751418991,0.6563891530026763,0.7980423960442024,0.1559031539991311,0.9751634767258621,0.7789739178698378,0.7224826536664751,0.29926843500518946,0.789832250211577,0.27604802253249516,0.8638979011189556,0.44645050387937335,0.9859574155021931,0.9311821211032807,0.9903767378279217,0.8818800360484697,0.976003400164716,0.757577520147696,0.9294898442106452,0.4334329123958253,0.9592078262186917,0.2382624526485855,0.8688152062265833,0.5427342929877723,0.8085026091879584,0.413814847191203,0.9455125486066818,0.6860812676413165,0.6377263283603452,0.2967351143556965,0.9695508122569318,0.8638158931214455,0.7150282507425365,0.2486849524665637,0.6792892069940792,0.47095746337151123,0.6048862567649194,0.23270156328944697,0.9219408598214388,0.2624299861450801,0.8765532849990573,0.5332932953470628,0.4480882462547514,0.9261820872383906,0.5566105071283491,0.9126454638095306,0.5579843193839061,0.9499104878009205,0.6599117721464477,0.9587524837364897,0.7942267571513908,0.9836361794554033,0.638610169175835,0.6660548701317919,0.1067513397916822,0.6554763273013007,0.07993436980163568,0.7882289119911451,0.2262226834920926,0.9599855274787669,0.8081595278885931,0.9666753844364747,0.7877671897839967,0.904487391174083,0.46726895634785565,0.8099391088728485,0.35616985031728815,0.7721176430923454,0.2728625977551313,0.5754411670146453,0.18586681560829027,0.9342712677965935,0.6470380559043474,0.6423656443971136,0.12336331085769765,0.6541142021409843,0.3640839922264816,0.552781442559527,0.15036387388818667,0.8118369772460197,0.4323997827027337
21,3.1791806956977804,0.5823954684355668,0.9623680567310664,0.7272388414273518,0.9445012915235208,0.7468763674240742,0.900714102980863,0.14519395073525135,0.9843490128112026,0.8808576357634774,0.9614955554630885,0.8274508955477822,0.8398582379349668,0.424983568953727,0.9860914486038656,0.6685002525560577,0.9723300717268964,0.5943035880115668,0.802080434638574,0.17017315007560713,0.9655098090566469,0.7641681210459832,0.7039688352947134,0.3281116739003994,0.7986260284417559,0.28577009700147354,0.8602462322052271,0.460674360820627,0.985997030949029,0.9306977301523993,0.9884093315709993,0.8772003189504781,0.9696193535054347,0.756237739354774,0.9150523120349568,0.4827229569944694,0.9476687335242938,0.18084201082673537,0.8638696555695349,0.5758079188853634,0.8250840841291787,0.38645230037208705,0.9530136612049475,0.6818574823555933,0.5971438961062197,0.2964180576611413,0.974577993651647,0.865562315481582,0.659980258194544,0.25213840310032354,0.7082414732162722,0.5040321156756797,0.6356944946916853,0.2682035217923307,0.9275512390229617,0.34836768839526633,0.8753349123994107,0.5344756690096889,0.46687038831333383,0.9400433205485703,0.5401901216073368,0.8976525068827335,0.5188848662533161,0.9514092086688913,0.7193487543546301,0.9505707287658195,0.7781543904094154,0.9776020603710106,0.6343616390708533,0.6333904773896252,0.11698719069594529,0.6481747105384059,0.06981587537448537,0.7866075994591831,0.22744551692985063,0.9566050450418812,0.801290152410282,0.9543980494439845,0.7854794291315135,0.8997641053943274,0.49254320088812337,0.7814417113731662,0.36681635308665433,0.7741810049336375,0.25277057742910075,0.5191159765089164,0.17774750290357538,0.9335009784660278,0.6159528037010762,0.5878106220761954,0.11161256657778953,0.6827632703603295,0.387521552315306,0.5842959453144527,0.16171056476276396,0.8032959623076199,0.43103516988344537
22,3.143149064924728,0.6094755409803483,0.951739266422905,0.7563636988244262,0.9656747368040994,0.8188466208924632,0.9091213792334044,0.2763908995103804,0.9738570285480298,0.8481745582386364,0.9453470699768637,0.7531291192407104,0.7874683857302165,0.4709107339697613,0.9764166460200692,0.6848578758057097,0.9840845711832209,0.68780405739223,0.8100986183397563,0.189451548040279,0.9690256914005261,0.800122589864145,0.7210360907283365,0.364155505922353,0.8242182805631834,0.3365071275394693,0.8412206950320382,0.48386450741996573,0.9904955115144118,0.9506691487795682,0.9961662244063251,0.9455746083342479,0.9833284107551972,0.8161472904386539,0.9426178316246043,0.4995899502921902,0.96223901769368,0.3649468049413695,0.8767959667735087,0.5474402772434529,0.8238694290969586,0.43485624314756055,0.9166886815761093,0.6572675473544672,0.6236202697534826,0.3011137997767202,0.9834702436117482,0.9217208234407549,0.5832414493128779,0.21065227725306027,0.7246196674439587,0.5285120580239038,0.6181313185836037,0.2469596428923176,0.9469166419414379,0.3099600913996285,0.8752410786692798,0.5631847928140158,0.4720876499962734,0.9173527151682321,0.547636554518142,0.919034944569945,0.5802940302577623,0.9382814739495162,0.6956036146687179,0.9338922548689511,0.714369398039355,0.96791151069609,0.6055771491461592,0.6399075633010325,0.1151350950899395,0.6475852577657598,0.08008595921853245,0.7453874687383973,0.17743128080462142,0.9624179792906854,0.8104486391292199,0.9738341782046267,0.8323262839386218,0.916527272290718,0.5150723562066428,0.7777907545615086,0.3177043353142421,0.7623856029189752,0.2704248256050905,0.5508300663050714,0.16877310955142233,0.9527784758195071,0.6974026859558289,0.5343120129777608,0.07942397978393062,0.6918206286087785,0.38638946530468343,0.5764836932305987,0.16606907639812402,0.8004741029592307,0.43112043549616863
23,3.0890939409624836,0.5737994087103426,0.948175350249497,0.7237233351078656,0.9343336183109712,0.7429452986878319,0.8910704908604435,0.24523053323714186,0.9787122920769481,0.8634797670806291,0.9497812603038785,0.8003512744861337,0.7877294876968367,0.41870973436580444,0.9871368353564428,0.7344974316719011,0.9671148414823659,0.6852641066322982,0.8070083282998163,0.206551667655925,0.9736354360270443,0.7425935356869099,0.714474365684056,0.3523417516443141,0.7930600108379691,0.24057214487810458,0.8473357468030105,0.4898028279913291,0.9897897682713452,0.9527836988403235,0.9853887255529733,0.8710017803643451,0.971600158830425,0.7619438894130937,0.9665495489501258,0.579319476381414,0.9635427183126637,0.3800894871238258,0.8708792390326965,0.5098097425343898,0.8767930678957578,0.47053642442166804,0.9538401498809209,0.6889077291287234,0.5976289290594411,0.2874048500075924,0.9674512277184663,0.8483931853407972,0.5911638054495199,0.20029682060162804,0.6757284291904342,0.5024289154385961,0.5755702150009869,0.2216832325564684,0.9384825773835441,0.34444720300146797,0.8705176527599476,0.5505596238622416,0.43839904598643514,0.9189258953528562,0.5223316245710853,0.8750741719935105,0.4898877643319771,0.9419921286956459,0.6977838857451641,0.9397661996470084,0.7578367952127177,0.9777423887218104,0.6151959472179656,0.6156997644825476,0.08724784330234751,0.635352328058003,0.05885354989597026,0.7644812150167779,0.19566919034541008,0.9599020068367663,0.8091372562849599,0.9572106342398342,0.7909920330827337,0.8960849290176117,0.4779420000191446,0.7546212355808699,0.267765925014342,0.8049006716789727,0.26120601182710407,0.5164016087080409,0.15553096066947128,0.9338136244157187,0.6398204185430466,0.5424113276064848,0.08000967391865701,0.6492533162830577,0.35983658937818663,0.5356609104839323,0.13438959973618134,0.7899607976010805,0.41119094828313696
24,3.0348837079505695,0.5858736428908599,0.9573700107580426,0.7604624358599934,0.9317207744005531,0.6580142744415413,0.8576507117947693,0.16230351646648766,0.9735761436763971,0.7996378251277895,0.9445342578504804,0.7613576648788313,0.7354724144707481,0.4341997575993835,0.9747425092729591,0.6457748933588106,0.9753343567954091,0.7302368992691752,0.7106475772540346,0.13825585890497136,0.9534597891657705,0.724202873285014,0.7233158895961445,0.3479873143360122,0.7518981433996277,0.23871294574918867,0.8492900447419863,0.48883985086001797,0.9936811480562832,0.9707154169013277,0.9892433906364724,0.8768510110731267,0.9696118315642414,0.7672327455449489,0.9475361126586787,0.547618811237133,0.961281842333225,0.3052172158815871,0.8416628189762317,0.5154930825247717,0.7923101241860365,0.3625999181055689,0.904268716812479,0.589424880156944,0.5884959420685275,0.30190458639402046,0.9721037855858226,0.8794486730935202,0.6119631833917548,0.21814559853863763,0.6840033470226804,0.5009706730929289,0.5679148081284859,0.23124074104932613,0.9338963235832444,0.31908464878871784,0.8554439258585588,0.5287383004636953,0.44667213236938214,0.906924073272463,0.5396383019084778,0.8786351403032441,0.4036497095926326,0.9319072678857633,0.6279173922275242,0.9332720797443705,0.7145570726332537,0.9640729821440943,0.5725104710315727,0.6439594374054661,0.09798799124193673,0.5688178463455713,0.04437689485898651,0.7381190147603803,0.172468447999681,0.9600503904215031,0.823875504908223,0.9667156202971272,0.7748117271061036,0.8825313415509609,0.4661118140401196,0.7325132978217518,0.2796905869844218,0.7435238983603241,0.2405614327272752,0.5088059255981199,0.14557614060063268,0.9235137280825336,0.6504106024985796,0.5402087882744201,0.08046107845465209,0.6447492759639613,0.35757031784506843,0.5158702196333287,0.12309326430725459,0.776899462659188,0.39529270838702196
25,2.9962177730365402,0.5778738416436858,0.9400098601596347,0.7043417292597601,0.9322509527242564,0.7446701009180251,0.873208491141276,0.2927321562824477,0.9621760062018824,0.781945886207938,0.9418974309415996,0.7710712989393218,0.7147920303836767,0.380446304485306,0.9705546074843849,0.6472080102142718,0.966886931070182,0.7083053864790297,0.6506092967935371,0.13371728888315074,0.9278423790757039,0.6477508055407705,0.7694687588362613,0.36718096085270263,0.7828360187634162,0.265441529507605,0.7947698163903408,0.44746993482818864,0.9928419819690454,0.9681060450541341,0.978259895834488,0.7745188030528467,0.9722555156849166,0.745266750368959,0.9567168387660356,0.47793766830513906,0.9595060316870447,0.3666506638688103,0.8337695524845378,0.4903590647026907,0.7758266555395843,0.3654035754220379,0.8947604780259315,0.5694479627342598,0.549561403469537,0.3069906444482107,0.9719366419993672,0.8522671824945734,0.5178916875345446,0.1902695416619562,0.674075250112238,0.5089037645139528,0.5561270271532874,0.19752886695482091,0.9226633117421076,0.27658140681678256,0.8438331426655118,0.5178708641776923,0.4337780427815458,0.9045671132944757,0.4614816586459394,0.8711128293200883,0.47363430876569895,0.9135959385079137,0.6341100158055412,0.9321168178554552,0.726993858689348,0.9593944568547328,0.561470746407813,0.6778008793297249,0.09377873150074008,0.605837112170925,0.05425543801703783,0.6893769221069443,0.15368443567291612,0.9542399804496577,0.80570422537537,0.9473054976415406,0.6690106601892193,0.8904078342481108,0.45453940441757346,0.722733473685492,0.2637183318514355,0.7309650374799115,0.22709232986530412,0.47177732011014284,0.14628249520940417,0.9324312986427022,0.6180693856595533,0.4634119183042787,0.05942075824418018,0.6346747744464778,0.3551872464898952,0.5143269178521361,0.11357420900605897,0.7675597845722616,0.38177823554516827
26,2.9527068767295037,0.6537974211820824,0.96739669929729,0.8074578463801128,0.9329211085530179,0.7495671364025752,0.9063510443695985,0.2921315956279842,0.9673313107197837,0.7838333613258547,0.952027231951186,0.7869901090798103,0.8248849578924985,0.47469358391551125,0.9887734994940619,0.7385237057569762,0.9775511393672801,0.7686012300442023,0.7765705055838269,0.1793767561041715,0.9814153967165101,0.8032233400459451,0.7729970840851432,0.46318863109141073,0.8117682541272023,0.3807966258008514,0.8384004389334243,0.49701399330590096,0.9934636830224216,0.9679236046262286,0.9971042903942622,0.9353006600584984,0.9846233592997612,0.8453311062688649,0.9614307208182031,0.6325842557467454,0.9669352577837463,0.3818338591936706,0.8833273702793225,0.587775361924614,0.8439637148267629,0.41701417626530835,0.9566934662540499,0.713578383079567,0.6541594949334562,0.37388807840530414,0.9797990053749139,0.9096273362246325,0.650821079392508,0.28237158583765715,0.6817308135196092,0.5343246745480124,0.5894334869430009,0.2638625083066547,0.9221997618671466,0.29969821154382487,0.8801508953999998,0.5877967302559589,0.4767086532011627,0.9196088399421498,0.5703651998946648,0.8653202282288274,0.44059744453020183,0.9246548867530959,0.6096813128087494,0.9438840786486196,0.7501132386088943,0.9835557099167413,0.6300713225357241,0.6573484727416933,0.11187580203111516,0.6231306163095871,0.0705734397534334,0.7191649386677127,0.14833751343253823,0.954353188783723,0.7984734910607875,0.9771479938743355,0.8255758140123293,0.88405287741658,0.46846311886600767,0.7572277303808148,0.297246384172685,0.7873767058885229,0.25337839755833247,0.5535444735057089,0.18149489604905472,0.9369726892894485,0.6735770333932447,0.5779138833683214,0.09462797970332917,0.6375609963376614,0.3623162994022178,0.5343514241933556,0.14096818245361184,0.7909538741248278,0.4126520483481623
27,2.9170091608136857,0.6063203398673325,0.9113980087605402,0.6365811559670721,0.9204920341602985,0.7176775013242802,0.9019941025192207,0.3154973758790214,0.9511888848340355,0.7291717323585243,0.922205079754171,0.7694780177476532,0.6997587346484857,0.3254971942529575,0.9642651007669728,0.6436596540488472,0.9693596351551999,0.7725616019219386,0.6932528678182324,0.14418557303875743,0.9436924172716241,0.6320772720527842,0.7388522849888132,0.4158542164793893,0.8105315908756896,0.27697461401353785,0.7978993755456227,0.4390420413029654,0.9959327969581422,0.9788614916071026,0.983420310347903,0.8213164573162095,0.9641699647115858,0.7398189062098779,0.9305169558019876,0.49840658762272844,0.9379946213304095,0.4181620852640755,0.8374373042037567,0.4434511848177935,0.8874088190009845,0.4607651518300278,0.9036804873368124,0.5857521129668732,0.5848471672753378,0.3200303228621511,0.9624123391562348,0.8416410184637266,0.5923002262287976,0.22611297997487242,0.6573466200625153,0.49525088793782773,0.5469280294773762,0.2305980201612855,0.9051362713327348,0.31898860707464705,0.8486822974193884,0.5258301394258121,0.4434672430498621,0.8689023223974952,0.44975069435383813,0.8601275948320708,0.4381928327616151,0.9080681771061508,0.5938041982573354,0.913590634229884,0.7289771109637458,0.9548706216458234,0.5231136485934115,0.6279518375688271,0.08135270041912275,0.618877734951235,0.049323767717239994,0.6892612454202189,0.13493851246993796,0.9600502257947449,0.8184653397115046,0.9469722024177827,0.7283311177020662,0.875958724185652,0.4423158558455387,0.7326139207327328,0.2479237468944537,0.8210816541359016,0.27275119075798376,0.49431154116739295,0.13943740208465394,0.9183712710266592,0.6087766122462287,0.5134175297574128,0.06804155206632435,0.6149122725054071,0.3409212254872513,0.5032821109142875,0.11645893282776885,0.7679234233772044,0.3768264689533345
28,2.8643050510357164,0.6131524682616581,0.9095442673334557,0.6387647510388756,0.9408023804126904,0.7831647031365148,0.912961185497506,0.33054709411804484,0.9725466377387159,0.7819945274363723,0.9381715501760044,0.7952627350077917,0.7400250291864409,0.37420417225403946,0.9637572073348034,0.6342615051632828,0.9694715115764378,0.7831525897810002,0.6968047619323302,0.1515270995999703,0.9559501586286078,0.7217998326030513,0.7623439468453508,0.36709842338782017,0.7863692150260938,0.2981188844292422,0.7911881144828106,0.46224202944009346,0.9976556608564063,0.989139835118249,0.972286979640677,0.8085470601803457,0.971775770397217,0.759946768094521,0.9155214370187444,0.4665845038309394,0.9634030110932434,0.4476407629160266,0.8708095532975766,0.5217454913671429,0.8487573967994514,0.4270830811677402,0.9159985692174024,0.6265354432090635,0.5728563633151365,0.3420336269234484,0.9692018546673276,0.8737585872661143,0.5896268396268396,0.2540603206651075,0.6531851656559315,0.49746657735777683,0.550831683017723,0.24103019581044655,0.9133476161668317,0.28920580420246494,0.8535256987756205,0.5432191261298329,0.4471193262279198,0.8696261211834464,0.4464335666309976,0.8780915884564862,0.4585829683296142,0.9365633445291189,0.6384837275047431,0.9278297562190267,0.7451037354593014,0.951875926934536,0.5305176724376798,0.6457437094456111,0.07141207800204369,0.5791776317969999,0.04697404874359204,0.6710852066943613,0.1353399388145366,0.960628010840489,0.8299905625425572,0.9356552532577554,0.7276142153311644,0.89289135659755,0.460582832446476,0.7544975968433699,0.2746606679978228,0.768671963677639,0.23334750263058926,0.47474215219781324,0.1558629592597953,0.9257630419983662,0.658794361401902,0.5124502137453513,0.07272256755108836,0.6034119238913427,0.31605811893173175,0.4971900844409185,0.11613552339996253,0.7658830490416768,0.3843676137453109
29,2.835542239750937,0.6273136071153512,0.9257497280087006,0.6721350777121066,0.9147614484302354,0.7081780158757388,0.9047691499818227,0.314404370799135,0.9659384821979903,0.7976590711097379,0.8939643056560008,0.6939534863985107,0.7019802160216572,0.35500307455913305,0.9731957253696383,0.6401568519474544,0.9695319853176475,0.7389987408177786,0.7596376896896202,0.1861578695719724,0.9624888878417356,0.7589114345244403,0.7148866218190487,0.398324116086595,0.8064288287167183,0.3298443573321047,0.7933743136130611,0.4725636969856647,0.9977918706472627,0.9894953929362579,0.9666467037038743,0.7979819781216574,0.9635908164558146,0.7485765627255738,0.9138905569740028,0.4454679337622585,0.9615478346081276,0.4140083186193803,0.8542869777294368,0.5622809842191518,0.8312616756887838,0.36339786756829934,0.897462454682017,0.5159513943306454,0.591856853084766,0.3352142371246056,0.9689793193206647,0.8681317359954519,0.5575758522187093,0.21375216072216513,0.6241121619653914,0.42639962515911056,0.5245169563402085,0.18692840316804715,0.9025899452448568,0.3085884461861255,0.8460302726417701,0.5274987112725592,0.4434672430498621,0.8907674548926047,0.49082967126985133,0.8506676667117994,0.37775906643496804,0.9267938046380481,0.6504684222161822,0.8838698906280072,0.6464403550579735,0.9653884508013189,0.519281685703545,0.5630193477291157,0.07804485945717163,0.6019534036563409,0.05250290936696759,0.6746700456051615,0.1490087856107922,0.9553446442891345,0.8088670032717429,0.9313154231414098,0.7194440634360553,0.851521936040861,0.4058231928126512,0.7102081087229603,0.2723205879421237,0.7663784028800157,0.18582203824081286,0.4849257298727104,0.1290235770101656,0.9170864566609535,0.6133965143493791,0.47928283166238683,0.05610852235194958,0.5806472030117408,0.26669229342619116,0.4796836454133475,0.09067520355272098,0.7507513581309954,0.36180604175062464
