epoch,train_loss,train_accuracy,train_1st degree av block_rocauc,train_1st degree av block_prauc,train_abnormal QRS_rocauc,train_abnormal QRS_prauc,train_anterior myocardial infarction_rocauc,train_anterior myocardial infarction_prauc,train_atrial fibrillation_rocauc,train_atrial fibrillation_prauc,train_complete right bundle branch block_rocauc,train_complete right bundle branch block_prauc,train_incomplete right bundle branch block_rocauc,train_incomplete right bundle branch block_prauc,train_left anterior fascicular block_rocauc,train_left anterior fascicular block_prauc,train_left atrial enlargement_rocauc,train_left atrial enlargement_prauc,train_left axis deviation_rocauc,train_left axis deviation_prauc,train_left bundle branch block_rocauc,train_left bundle branch block_prauc,train_left ventricular hypertrophy_rocauc,train_left ventricular hypertrophy_prauc,train_myocardial infarction_rocauc,train_myocardial infarction_prauc,train_myocardial ischemia_rocauc,train_myocardial ischemia_prauc,train_nonspecific intraventricular conduction disorder_rocauc,train_nonspecific intraventricular conduction disorder_prauc,train_nonspecific st t abnormality_rocauc,train_nonspecific st t abnormality_prauc,train_premature atrial contraction_rocauc,train_premature atrial contraction_prauc,train_prolonged pr interval_rocauc,train_prolonged pr interval_prauc,train_qwave abnormal_rocauc,train_qwave abnormal_prauc,train_right axis deviation_rocauc,train_right axis deviation_prauc,train_s t changes_rocauc,train_s t changes_prauc,train_sinus arrhythmia_rocauc,train_sinus arrhythmia_prauc,train_sinus bradycardia_rocauc,train_sinus bradycardia_prauc,train_sinus rhythm_rocauc,train_sinus rhythm_prauc,train_sinus tachycardia_rocauc,train_sinus tachycardia_prauc,train_st depression_rocauc,train_st depression_prauc,train_t wave abnormal_rocauc,train_t wave abnormal_prauc,train_ventricular ectopics_rocauc,train_ventricular ectopics_prauc,train_mean_rocaucs,train_mean_praucs,valid_accuracy,valid_abnormal QRS_rocauc,valid_abnormal QRS_prauc,valid_atrial fibrillation_rocauc,valid_atrial fibrillation_prauc,valid_incomplete right bundle branch block_rocauc,valid_incomplete right bundle branch block_prauc,valid_left anterior fascicular block_rocauc,valid_left anterior fascicular block_prauc,valid_left axis deviation_rocauc,valid_left axis deviation_prauc,valid_left ventricular hypertrophy_rocauc,valid_left ventricular hypertrophy_prauc,valid_myocardial infarction_rocauc,valid_myocardial infarction_prauc,valid_myocardial ischemia_rocauc,valid_myocardial ischemia_prauc,valid_sinus rhythm_rocauc,valid_sinus rhythm_prauc,valid_t wave abnormal_rocauc,valid_t wave abnormal_prauc,valid_ventricular ectopics_rocauc,valid_ventricular ectopics_prauc,valid_mean_rocaucs,valid_mean_praucs
0,5.5938876241174835,0.39691626593389817,0.5187400715177585,0.03605096322185585,0.5528965239809571,0.16535734020603962,0.6027239576919393,0.019701664967754655,0.5919576542367369,0.08718876651793518,0.6283658533230542,0.1292288655302301,0.5406127140876295,0.057557919471446575,0.8236861862385207,0.22287828007306842,0.7419979539757942,0.04502486423941031,0.7656816040371697,0.4247162906154466,0.8475220283933156,0.08886731028226821,0.7503628910506832,0.23931480040305686,0.759510575988781,0.4629863880704145,0.7911556088679677,0.24233170407384264,0.6212395926342044,0.0585836479847969,0.6972856051410445,0.031032450648938458,0.441534825105123,0.015909736089182325,0.5968778153321123,0.019014463951624268,0.6547952931417833,0.04045723595610843,0.5936523297732759,0.030186380976511502,0.3784638101394592,0.03048260739578989,0.5651847235034934,0.04441055645230538,0.5998902141300873,0.03392684545961044,0.7244472706048597,0.9302758431030509,0.3700739717778923,0.03282281865802268,0.402741192962796,0.03649718682606299,0.6017749151713679,0.13552449736859312,0.6756272824436997,0.07786478434991406,0.6236593505648707,0.13845163751456596,0.4748168498168498,0.5603854901543341,0.17337440222917208,0.6006014840966296,0.09728428188967535,0.5549855142443264,0.058275132354288495,0.8188325591259153,0.22904032998616147,0.7693819169574312,0.4364233711579931,0.7668524418969681,0.25136514110443847,0.7665181719295752,0.4818151157320646,0.7937015859065857,0.24468922333137103,0.7383204021253472,0.9354153604528996,0.6033763139627571,0.12731171778851516,0.683578855270922,0.08165066295882115,0.6960486123337084,0.28333133990776366
1,5.167380574295315,0.38256621631936494,0.5238947106930163,0.03687630203900729,0.35707663949037777,0.12001485260116693,0.6569026540599957,0.02390504732158942,0.49109110470593365,0.06522714321609474,0.751991717274192,0.2036259334115171,0.6205487761708144,0.07181310657367618,0.9300015301221448,0.46356946418945105,0.6358185577167175,0.02452446250758294,0.3396917041006302,0.19939214311505243,0.8384864581696265,0.07519987964249492,0.538225241161035,0.10527891458421382,0.7457845874175069,0.4054357901469937,0.8044116763087625,0.2163717031919127,0.4201926783543265,0.02977397095804983,0.3926582018911794,0.01428782924117847,0.44043886535472465,0.016864778254910943,0.3806761570082752,0.01294122739993522,0.5507207074422035,0.028034705426985617,0.3471011120777443,0.011642176257544656,0.7115396610010919,0.06392581083639463,0.5354696675698133,0.038137309573095295,0.6323820675315436,0.04013555990627117,0.7768602996139629,0.9472499639529206,0.33878060501147156,0.029966034207296717,0.560435027826109,0.05042302267991262,0.7309948213041351,0.21274397981666593,0.7865464839367295,0.14197556889488347,0.5866193227153358,0.13516061777580735,0.39514652014652013,0.3442861760619754,0.12384575238008799,0.4842122384154115,0.06830271288997367,0.6245011174115365,0.07084917666444998,0.9244439651040168,0.460108697358851,0.31966215325533726,0.1878289772729224,0.5374826753341605,0.10838779659640879,0.7535010139548612,0.42285666939992517,0.8180794896481062,0.2530945322284976,0.7827304220504769,0.950419731084289,0.7382356578853152,0.19317783521531462,0.7708883553421367,0.1332844021918256,0.6452748422239395,0.2701960257529587
2,5.0109829666796335,0.30455690405312574,0.2960669318620113,0.0240458064378486,0.39939162531784567,0.12893701781567163,0.6317086965048871,0.022849552999964155,0.40114669653345547,0.055622348484130876,0.7664893390392186,0.17154418997332097,0.6165625597514053,0.09586886762363876,0.897727803469578,0.3728875276238342,0.6684839200009576,0.03342843076950169,0.4878062057543791,0.259896840385331,0.917014825292053,0.16426363966069726,0.7144194960304815,0.2694939615318984,0.6258204375053101,0.3211341567309619,0.776110366043437,0.24140717068783318,0.45129459887780016,0.033756314126121886,0.43963158712886685,0.015041241672660879,0.4366840077058755,0.016297761014079502,0.36869346962275296,0.011778931016425919,0.5588488627603414,0.03362576945436664,0.3720846455940635,0.011688406194587102,0.6670215207324377,0.06683736857180472,0.5580851332178282,0.044615202779527754,0.556446770262745,0.03294968119753602,0.8039431081620741,0.9548900318092655,0.34843289293908264,0.030605366010576306,0.4202968135840281,0.04058889718139036,0.7381995478602452,0.23465621625670943,0.8514008841948565,0.1719602848847235,0.584067138731408,0.1429878141812744,0.4649725274725275,0.3840891730623236,0.13084082939296493,0.4078849908828597,0.057761527887077974,0.5652692256743994,0.0764605016295627,0.8906835103987821,0.3824587445249334,0.47359044845973564,0.24764663831837802,0.7009079299453512,0.2525157287773352,0.6059375119570148,0.3284741350477116,0.7872247518018654,0.27926670561566036,0.8084134615384615,0.9571635589122852,0.754801515654524,0.23495042112411507,0.8380531873766456,0.16665297099484747,0.6560777915229057,0.28310834202044294
3,4.813133005112803,0.37813907335317914,0.320328465244592,0.025128169684468345,0.29228703488522223,0.10040059672774848,0.5902687507506685,0.02205641294947671,0.5085257910089321,0.09466389291048269,0.9087393425617842,0.5916676447073497,0.8377346288682187,0.4404315473117286,0.963284692992668,0.61309340645197,0.3793847312923906,0.01548906570710696,0.45821431524435774,0.2874867615248763,0.8610033003300329,0.09758085053254507,0.5280624783623867,0.16109567307954728,0.6392194688679698,0.37905611669339234,0.7106819217046674,0.20605333703448625,0.39332989578631417,0.030729892173330418,0.36085625647012914,0.013947040393073769,0.4573146611373128,0.020043224816792767,0.37147188545961135,0.01285013458916036,0.4308210592290818,0.026652522828623453,0.38025588053912657,0.012456091270204481,0.6975483205476266,0.09844007176351109,0.5743710814892998,0.04894421054417569,0.6192728724091277,0.04726182824477636,0.8069990886656633,0.9558710659556878,0.39542902987997963,0.04005029097546265,0.4644535808473798,0.049269175134918936,0.6395770282326705,0.20888585170008592,0.8771629362309064,0.2418954649966944,0.5728369814458563,0.17931482743339544,0.42948717948717946,0.2884609910743495,0.1065078577071486,0.5219732250279255,0.11870335699202392,0.7855926554227576,0.38977402340959544,0.9554431284370889,0.5903444274716568,0.44466827768270334,0.27034856022906756,0.5039256785182686,0.13653450746070686,0.6034799696086846,0.37869311446170184,0.7034316593944319,0.2192639389724006,0.8058537616229924,0.9568776495365392,0.6489175544773412,0.19521491961184406,0.8689645349665289,0.23585992381172802,0.6482464942030066,0.32710202542403755
4,4.571780516131126,0.4754598885581253,0.3480542626283757,0.026909387600487028,0.3266897295916218,0.10522055977211217,0.6262120921874215,0.025581049011432766,0.7099926542431182,0.181771689471438,0.9029778511142378,0.604636923106656,0.8362716375340689,0.45932374441323776,0.9386824898956171,0.5473502659849548,0.6363634502469023,0.027238064774825693,0.5953419588834958,0.3830140423094586,0.9323016396877783,0.2115890472111057,0.6696771532867535,0.18703711023152975,0.7390216071631053,0.5479210961294307,0.8261898782704871,0.34402190582980136,0.4449416989829035,0.03431311930873369,0.4982808060829963,0.01884076243540789,0.557190133564605,0.03067785468554641,0.440007696484079,0.015633572971283198,0.5710626000239918,0.03911420712895598,0.5259376154433512,0.02389738587458753,0.7086644447751368,0.09825918350685693,0.5477237560827386,0.04182834480816682,0.673772928519553,0.07047328700028793,0.8501560736849652,0.9658970007917631,0.5805001272576752,0.08744832685244378,0.49664818877518774,0.049840107731851026,0.7822613339021531,0.34830928428128555,0.9060534371402172,0.37301254699732195,0.6544806387204644,0.2166355507489245,0.5512820512820513,0.3200772352825806,0.11240527245883385,0.7159287244534699,0.2044297195576819,0.7878627314409267,0.38826508262509846,0.9229910552171122,0.5246723600799006,0.5951152733886048,0.3985347598829888,0.6486894117194825,0.17002266772746816,0.7112476564250848,0.5380700639303235,0.8281934532221593,0.36979115920273226,0.8509183296099505,0.9664854080150443,0.7786169149459324,0.3272949553685923,0.9052699045719983,0.37913331491410807,0.7331736991161183,0.3981004330693429
5,4.446879178892973,0.5768261964735516,0.5213710784538044,0.04393465844265418,0.34104663820834913,0.11214138379178196,0.6733911367136604,0.02996899503328208,0.7995707773429801,0.2244902698897074,0.9018179625346637,0.5326957894554682,0.8645927199730677,0.38503884322620513,0.9200986510526823,0.36608345690292843,0.7161004403865524,0.03725897242617848,0.6476614422019906,0.38692219859280674,0.955138771019959,0.29679604121302355,0.7600965283433064,0.23344848088218437,0.7973582521225766,0.5742171302199379,0.9224234164677471,0.5924970378220188,0.5498107976317168,0.04346339445196987,0.6434832363709728,0.031905380519397356,0.650167142807882,0.04262878733575147,0.5192415830892136,0.018985916407539924,0.6422356274648562,0.05753370654370629,0.6783078524333305,0.03356755190596801,0.7947833909992377,0.12737425627262847,0.5909710574950174,0.049487669744699064,0.7505535875735523,0.10746440278594711,0.8332363223051639,0.9621633279592405,0.6792334769461466,0.1219419708652283,0.6613477231460144,0.08096856586057799,0.8114159296277366,0.32723661134514936,0.9025720803053525,0.4192642399747529,0.7232602823339827,0.23109181629150868,0.6101190476190477,0.3309251896276696,0.11517425006132143,0.8184943602892928,0.2697598030690552,0.8167583955423183,0.33845319345698693,0.9034179877579361,0.3429244310372647,0.6455029788048151,0.40226122703533784,0.7511785577762923,0.22207537765152235,0.7789419886633834,0.557740613524557,0.9278530640545506,0.6092649282945712,0.8332251539669121,0.9619557236395901,0.799925850573223,0.2974441949274148,0.9031426129773944,0.4172356613700533,0.7735787400030716,0.41220812764251596
6,4.324912233576867,0.43141744904969087,0.38414923938837287,0.029781172074444754,0.2918137715243774,0.10050644728859678,0.5821132593535204,0.024151878570534645,0.7115229746796555,0.17848572784268946,0.9188453315270959,0.719794380032999,0.8684351718022975,0.46717301832450325,0.8757685901126924,0.3076912776239132,0.5320592087152569,0.020413912163830997,0.5887300621715104,0.30036169860971207,0.827971921001624,0.08848902866505431,0.5736346420155239,0.1849666323683871,0.6889019065136551,0.41505062692052297,0.7162147170753926,0.17719720346754586,0.35876788650164243,0.027675956563287377,0.37894136285310775,0.013053819334720822,0.5868163426499129,0.033575182738152354,0.4410180464652853,0.015964882969259304,0.4033872854569649,0.020637930173230144,0.7198704561684309,0.041577788534965326,0.7108461108480261,0.09982264560634206,0.5782363997365414,0.04717673187739364,0.7346275432314946,0.11490201204841591,0.8630150011775668,0.9683813844734782,0.6192425090251878,0.1354254038315421,0.38407738596772084,0.034792257756466945,0.7534884445517638,0.35386166265750046,0.83809069688781,0.3338343559349308,0.6270587506445345,0.1946201858686082,0.46222527472527475,0.2818033081562221,0.10534038886733128,0.7098795995315057,0.20561991549070505,0.826016032612179,0.4013159150468748,0.8591458153580673,0.3021300113416675,0.5862032108331203,0.30640442468253215,0.5339643533655232,0.14109165218738262,0.659074486053338,0.40219825304692464,0.7049942145986434,0.18651809618900575,0.8598406744354546,0.9685722677348897,0.7406622319036638,0.3164544024323607,0.8386422365556392,0.3326989464009411,0.6909296512184869,0.33348584303823775
7,4.1958180940130285,0.6046103350889245,0.3888184043825873,0.031777524430829346,0.3283716560231109,0.10591141171282638,0.5853956764531043,0.02215905691745107,0.8665248261604481,0.3219577017179098,0.9256926957422582,0.6433273676277336,0.8511571123015772,0.4393648519339028,0.8885396204042312,0.38716740386117776,0.5504264965174123,0.025590528555311524,0.4482162765603528,0.23467385081668685,0.9772161978102573,0.8329710301303699,0.7268993890324839,0.3387437696901908,0.7253532681226301,0.5465824114221294,0.836951813119217,0.3693328296228743,0.4371000556816722,0.03307615075318181,0.6364410899914338,0.03665481747589759,0.6175594937960676,0.03496153881036013,0.5040947234337058,0.017756874754163605,0.5473903327887131,0.029887672452369708,0.531991436679158,0.029146064620329832,0.7818020371934067,0.1378921964907545,0.5908929564476431,0.04969637904257657,0.7270697865474726,0.07870979172533078,0.8280197216846373,0.959368684836003,0.7533570145931323,0.21807787694506817,0.5839137680258839,0.07209401713784347,0.8004061228806323,0.37997814853371653,0.9190756263428836,0.4589957673388622,0.6799510221746708,0.2531798414576241,0.6163003663003663,0.31940072470464564,0.11018518083885424,0.8673350443419116,0.3701049166091371,0.7879316349247724,0.3676920794272034,0.8672590152314053,0.39577577467291764,0.4420273371106468,0.23577364181914062,0.6931040889414708,0.2637562617509516,0.6891043580927809,0.5334468543948298,0.8326672025155456,0.37384395204851034,0.8293474897355392,0.9604212704059314,0.7757000552126219,0.32108890149952635,0.9212261175656703,0.428376810690927,0.7295548243979101,0.39640596765072084
8,4.105999067970545,0.5573620334325624,0.33918195843602295,0.029709402684314108,0.3397285496903878,0.1094798667328734,0.5980110893702288,0.02342045814317789,0.7528007407381747,0.21864323446251333,0.9281786205767478,0.6819116386087472,0.8511156926876561,0.41363349469013505,0.9209596497379621,0.49000677748299565,0.5903108974096503,0.027120525710907586,0.5350519034824847,0.310808228747068,0.960913719943423,0.7977538504246992,0.7205148793014592,0.31638908617213524,0.7431945065428696,0.5853856280284555,0.8311555354001392,0.3339923262169186,0.41129242432728963,0.03484842465983275,0.4277816180531898,0.015742580427611993,0.5994948630749722,0.035302785425643426,0.4288962704866684,0.015103306616575541,0.48888135399356686,0.024978564559371016,0.5820238825832934,0.03529063570447783,0.7688317001910822,0.12333523203460899,0.5782629746005823,0.05039876715192516,0.7589038775479956,0.12014352163700284,0.8644722964601317,0.9689048120717638,0.6592226286504653,0.22581461096197913,0.41703314382369916,0.03992038545294977,0.8251511576419469,0.42866249676211354,0.9052777271077312,0.4885028177571142,0.6602460615503637,0.25722975775288554,0.5673076923076923,0.3293770136912484,0.11359546857909773,0.7435065789316322,0.24369499531968494,0.7994486653021283,0.33794833245082057,0.8980951301917652,0.4646650005645151,0.5333515899596721,0.3190153607254475,0.6864806743219088,0.25153507609643744,0.7067464894204333,0.5491296408969559,0.8262237669587338,0.34125985814171006,0.8583081753411423,0.9683885082138017,0.8154339102549308,0.3687718531380342,0.8992166358068652,0.4413625126671842,0.7360171481982237,0.3999424187994263
9,3.9985831950367996,0.4840851843370735,0.35185331668508,0.02854391555153699,0.366443240334161,0.12251304500684021,0.6236991578828942,0.030889222205961832,0.783372325950322,0.2699636054195565,0.9274317947437953,0.6490075788268997,0.8802242896174995,0.5309173029836952,0.9247190796820691,0.5293239496284637,0.508830408656799,0.0301283764326841,0.5873851783181514,0.3910951383649006,0.9483430247786683,0.7549094649348492,0.5812304277952847,0.2904762169440387,0.7260940090256971,0.5843194605509905,0.8235586279949828,0.4011273548294337,0.4054516969730916,0.03255743662596944,0.5156829314273808,0.021984647097256713,0.6260054430390453,0.041863209428085996,0.44075068313754034,0.01605120240452702,0.47267723484168656,0.027072829658500212,0.5585738489009981,0.026791652788296573,0.7941178913227926,0.16193530800785302,0.5859965163856681,0.062465695131182296,0.7566861394545219,0.12215133684746297,0.8758125108796935,0.9720822668671651,0.695964415629999,0.21610930868071096,0.48105182323153595,0.05600114504703127,0.8355182560563419,0.46909410720772055,0.8819593335447726,0.3886284944557776,0.665164207640388,0.26770382488619965,0.6499542124542125,0.3474802028050039,0.12188582452580339,0.78502126003902,0.3246471474873791,0.8209732590386413,0.4354247367432055,0.8940969952617925,0.46728537564754236,0.5740627001375371,0.3893311353498333,0.5325949306265924,0.21732874761174084,0.6763961693823894,0.5450692297817372,0.8128378497738836,0.4120111079134524,0.868443953024997,0.9707416712365263,0.8187161911457418,0.414505509816407,0.8770097869656337,0.38686724522805555,0.7279666634728393,0.42591797557651656
10,3.956022911986798,0.5327837569651172,0.3730242728918931,0.02923419852973782,0.3843714820658691,0.12151451576546152,0.6203023350923684,0.026106920264255595,0.8470542858544132,0.3670570785931671,0.9605258787794613,0.7990376132474649,0.91860407713488,0.5744535380414649,0.9533158077999283,0.6205957822670755,0.5946701951345191,0.03680178504688633,0.6687816742473499,0.40004941127210947,0.9817597569280737,0.8042497737906144,0.7013444457230307,0.3147584512513728,0.6566950561778476,0.38133039415876735,0.7433224756788094,0.2655834361055997,0.392291795025551,0.03134875964383926,0.5561608858578275,0.02606742223926346,0.5990817230087787,0.03855698979834789,0.42760457374007355,0.01587188018269781,0.4607080652465623,0.02381123688062555,0.6973812483655282,0.04499535906784842,0.7518638736640432,0.1374808513287193,0.5906927477452382,0.05562545498087226,0.7395241835933116,0.08816148367745538,0.8581044655382505,0.9673348387448836,0.705736916884965,0.2587662928542928,0.4537217157397616,0.04262994749503323,0.817026572947231,0.43477251460203753,0.9095875582985621,0.5037943536396016,0.680120669228301,0.2744440845729443,0.6064560439560439,0.36967462375678994,0.12376345251077178,0.8439785015678929,0.39904408519657036,0.8600992210167376,0.47075845521736087,0.9355163658442346,0.5816956035942739,0.6628423992356715,0.389024883383908,0.6493439584165309,0.2284420407214835,0.6194727161418334,0.36984512176071177,0.7364112073381854,0.27072503128298264,0.8483708942156745,0.9651138899145705,0.801709756774494,0.3474057628993455,0.8970364416953223,0.44202612686687626,0.7476778260003062,0.4170767684862595
11,3.8474029436811,0.6201053354705748,0.5372543619949139,0.058647541250581366,0.40261875866105473,0.13570401911504554,0.6719012021339512,0.03441259915962236,0.9179616244825016,0.5166530826267022,0.9586431094256473,0.8075829055754435,0.9159964475456711,0.5401408400331242,0.9510336951020755,0.6373507610382932,0.5536823081269618,0.025408602818215935,0.6450755327322352,0.45984353181947174,0.9693144743045733,0.7767113769021498,0.7090257062221907,0.3185125836816863,0.7840970129998363,0.5992611491563594,0.8774187612789813,0.4295501687504086,0.4206231405122055,0.03503615028761865,0.634321698952542,0.04678371525504904,0.6792904270567056,0.05140402151316149,0.5428327610689163,0.02487992689832471,0.5389020678521844,0.03332625506703395,0.602433517742964,0.022136647281352128,0.8264078034222598,0.15396303732148683,0.6194812723258765,0.06309813259955513,0.8068503418501195,0.11563864876789959,0.8701288360519768,0.9703542748458833,0.7954413268611091,0.2716109056503074,0.5136675880598398,0.058310825239838576,0.864545736159137,0.44514087325313023,0.9381705824173001,0.5461206499322707,0.7239674109386566,0.3028734528088895,0.6568223443223443,0.385462859959191,0.1361086141868109,0.9206940348309043,0.5388684181983213,0.8552268366784461,0.4249832057974873,0.9240971695674025,0.5596835962619966,0.6304406787965325,0.44377435285730826,0.670288918834074,0.24356964856115493,0.7487171147928088,0.5697984282652979,0.8736911081472584,0.4496747609015138,0.8571805941311436,0.9666803497541469,0.843061229199843,0.382697427299956,0.9192117524976093,0.47540488944277315,0.7843702088577467,0.4719312446842515
12,3.785635168429923,0.5920158766506374,0.42102108924030357,0.048550993326174824,0.42059354754536815,0.1505261774040605,0.7062793520913057,0.05592064717450477,0.8766585612344227,0.44564819373292336,0.9236691076368552,0.6765615688094758,0.8664548567146252,0.5743329681078785,0.9401484793583385,0.622628349509975,0.6403296694297652,0.05924429994035584,0.7198236898934853,0.5337983218436593,0.9678891508198438,0.7739707480991661,0.8315796723967002,0.45638125905118726,0.7604612688757211,0.6121367318947321,0.8352844273583507,0.33486860115972544,0.44791317283393356,0.039553848662762736,0.48122248644787013,0.022524446864654407,0.6576914969268235,0.0703699050930954,0.5059793179363876,0.02383786097037857,0.4848234370219655,0.029411974739079423,0.6072033653820936,0.026752576458100214,0.7806767130875218,0.15829003580769216,0.6248247853417493,0.07909997733785558,0.8270039361992704,0.17202651680136175,0.8878182655976408,0.9747431826685755,0.8038003644071768,0.3555630044851594,0.4490562083187638,0.04683350225560227,0.8365732588035731,0.4794823338272609,0.9351620993348831,0.6084404626560844,0.7125904363049904,0.31227772180301777,0.6600274725274725,0.39600589714465745,0.13966510839725627,0.8685409625499609,0.47044777997278914,0.7810952342291143,0.446781714738776,0.9057253582706561,0.5365732949778019,0.7061299976785504,0.5183052622704188,0.7885253586125744,0.34826232927306483,0.7157253193547858,0.5645387860691768,0.82989098272329,0.3691751959222845,0.8809677273276174,0.9734484048395768,0.8161117886936622,0.37357369489810544,0.9049524894703644,0.5308979613827002,0.781242828732294,0.47924268479472276
13,3.6803509414164166,0.6500267155178994,0.47319979865201445,0.05182617758642811,0.408622797730764,0.1438819645820556,0.7215431997409338,0.049053266230308895,0.8830467169352969,0.5195513922932246,0.9657804143342249,0.8361347252359165,0.9427136035979196,0.6291802807975193,0.9639606131223835,0.7314459065971658,0.658739477747282,0.04015112392264404,0.7758072872689306,0.562045184865522,0.9748951752318089,0.6053843376918289,0.871398136509735,0.5374634612146069,0.7333822057765487,0.5446238808591741,0.8097124135250265,0.36913946061587166,0.4421287861065991,0.03855883948636433,0.6800873818839693,0.08899393182867908,0.6664053365985496,0.05750630583562333,0.5521283910768515,0.03025976265200947,0.5225387007412353,0.02974236908786724,0.7864793496432075,0.08568995434418289,0.8220114208659614,0.19546956225449164,0.6183612827985947,0.07100125378672863,0.8199591134976275,0.1276347713094464,0.8659152766258102,0.969964261045601,0.8027819201605866,0.352431199388686,0.5424924141729894,0.05743962983371856,0.8791099270021384,0.5471739659279633,0.9260884116941782,0.5072404645872599,0.7447885019644876,0.3251476827355885,0.7074175824175825,0.3924697159162468,0.1425319582263177,0.8666226556352059,0.5024436194555558,0.8757931912675251,0.47738625892332853,0.9352679803499475,0.6350423752743874,0.7539024267897617,0.533560167179517,0.8313874895091007,0.4036468905797982,0.6809823336813394,0.4857367204830782,0.8009913020244488,0.3658182459058257,0.8566956738316629,0.9680392810670605,0.8512289098732359,0.4039727625534202,0.8879972327914216,0.4264686552731534,0.7939399010608997,0.48587699408376755
14,3.594202380008929,0.5221738798564995,0.44310799900633463,0.03564986559494046,0.3838940509794382,0.12404019308820402,0.6421519216355225,0.03388349229376351,0.9077328084402001,0.4422779619769205,0.9489678799053403,0.7771287936975294,0.8807198199113716,0.41492826010859335,0.926210077405359,0.49261850280303104,0.5095189260388707,0.02424414219701279,0.672881178388764,0.4226196301673747,0.9606342920006287,0.7825739378869782,0.6708863393387547,0.30527079476766994,0.7409826147297666,0.46831275685353163,0.7963372614132272,0.26190582126756073,0.4176388170445223,0.0337040654608341,0.5453833458463839,0.021827103385407463,0.5912170976227205,0.05697934837674096,0.4709979774355792,0.022093560670854308,0.4436573746451211,0.022128293471002473,0.6685253748700852,0.07386422942588314,0.76908991711635,0.12994195826419547,0.5801409031762346,0.05870271076775642,0.8097615201055299,0.16354483910480916,0.8771831782017019,0.9728399175919317,0.8444379820209866,0.45353566051307237,0.4269967497588123,0.03844516671463355,0.8319118033881122,0.4760196251259613,0.9208962533090851,0.5197490983483116,0.6919208690272151,0.28254924925646313,0.5327380952380952,0.3730497681732772,0.12386987059098828,0.8960630059375028,0.4466891994311208,0.8100817013712327,0.3205046006634578,0.8819820290916062,0.43059782784082945,0.6595139187819271,0.40375232436588493,0.6122211235993449,0.21593253603804977,0.7024712075081855,0.43350944701634075,0.7792540917361503,0.2613214557455638,0.8643449613573239,0.969949507740251,0.7957641918037958,0.32400170824069285,0.8854324780759762,0.3990071560078302,0.7509253161305748,0.3935577848800918
15,3.4886691547260877,0.6485001144950767,0.4653786878387124,0.06074308776873433,0.4069169068771549,0.14546266799610902,0.68754399487949,0.051996640100269026,0.7896218257040959,0.3773989560237335,0.9494659874489313,0.8435894757357083,0.9141478564627361,0.6778412518156168,0.887588304429477,0.5864826107494213,0.498674619787851,0.03481393638724365,0.607175908108127,0.43461090663131013,0.936832102257845,0.7841883395758562,0.7241858663601993,0.40566490239522673,0.7518121017870009,0.6062700578688627,0.8699494875285022,0.396448295769329,0.42227538705351697,0.039991139479859605,0.6122506623096996,0.038549657954794314,0.6134427319553757,0.06616607826538175,0.54280908244784,0.03137935915120585,0.47640700802609715,0.030863943779350377,0.5522869866447264,0.08546434094572017,0.8505996869871889,0.23431465114241004,0.6225867716308285,0.08068709210605743,0.8316316699944736,0.1629456735801388,0.873923734627633,0.9720406221616866,0.811937504996127,0.5016803272375358,0.471295175298167,0.057058370997073074,0.892923946929602,0.593668679922582,0.8721165242507352,0.4933197549151478,0.7013252045415606,0.3256904007576431,0.6561355311355311,0.38219494344410565,0.13637392486256633,0.7577543530657431,0.3699630678286122,0.8214641295940996,0.4515325545808427,0.8037485873982854,0.4915712878153409,0.5794449052346938,0.39023267629818503,0.6530715644840613,0.24497047180537967,0.688338152579709,0.5400777120683862,0.8657543986715658,0.4054581109240917,0.8624528287646419,0.9695433252477459,0.844683284896537,0.40748717074418045,0.8146560319042871,0.386194848140719,0.7339602890943392,0.4357641045741864
16,3.4249619342254216,0.6681932676894894,0.6689004798357837,0.09878252209155114,0.38960571503901126,0.12840570954025854,0.6692504868893357,0.0448508049698354,0.9375272001763421,0.5516429067155099,0.9606857780944732,0.6575692825985063,0.9464372148488353,0.685265991189776,0.9307447634270832,0.5689632500988233,0.627915253778184,0.05209806952406021,0.6771409399597171,0.4544449686807389,0.9905662947247106,0.8959084693654521,0.7459914477333616,0.38108815277133756,0.714196886468273,0.5145911584444307,0.8458763843676491,0.38873380795849205,0.4604922062132839,0.04979340281545129,0.6543570221365235,0.04572800796564082,0.7347936804534001,0.09895646515383266,0.6708612007708417,0.04541927212793066,0.48727852909750813,0.026749570255733178,0.6744608022755594,0.06645197923986425,0.836426145552652,0.20175720501634023,0.6390427648522727,0.09957114225266825,0.862693131025254,0.185514215871736,0.8609920437440481,0.9694055564335546,0.9124416659086336,0.5209051572214272,0.5221463493240426,0.056291388249841964,0.8845785651243624,0.578601169749491,0.9545609229139016,0.650236414801854,0.7503690323975941,0.33398985337422743,0.6627747252747253,0.3766461919862935,0.13194730743659444,0.9305183813826959,0.5570111407839216,0.8576795870491362,0.42618135934655543,0.8770215819396148,0.4552657278195194,0.6518241169450657,0.41938343680895795,0.6575255251856329,0.22409714876603326,0.6641151535690664,0.4526063399557508,0.8331253974703221,0.37458176036602603,0.8466455591112184,0.965354215150229,0.8311553048796004,0.3708410024726233,0.9179115714082244,0.5189186335125306,0.7676516700842609,0.44510800658352195
17,3.303035110273886,0.6967407068162735,0.5929025652256339,0.12152477196679631,0.4173178058374433,0.16895647169756609,0.6733660510804307,0.05410652062644182,0.8874512994915584,0.5130978669056387,0.9604744241611765,0.810781513583689,0.9144700625291683,0.6544860635649147,0.9555971362666136,0.6715525976991358,0.64855313710063,0.05050782275365298,0.7466948872476947,0.5362240956269283,0.9848578762638168,0.8438623359759955,0.7888799019029298,0.5202493990940338,0.6802165656357204,0.5416889058817445,0.8432472045491279,0.47072907219197885,0.49230909258643013,0.061537772020864086,0.6046598159093239,0.031890823703639735,0.694839132366824,0.1293881276777717,0.6078674921991062,0.10075537676208278,0.5254236460668776,0.03598820612352461,0.7445409578960066,0.08907316597352008,0.8156659962800492,0.14516478385880568,0.6338537449366766,0.12815071337369097,0.8815373409587047,0.24754802442284382,0.8816657962911764,0.9739271081017566,0.8720213511120422,0.5480089173888071,0.5706395581525654,0.09059116111425118,0.8783130201988911,0.5775951035143236,0.9437671527019001,0.6119615946184457,0.7496715931462413,0.36034623393417936,0.6913919413919414,0.39409334130329077,0.1459672613906109,0.8682746639175719,0.516444109999921,0.8120911192489627,0.39922230662949265,0.9107388233790303,0.5144214547699055,0.7145446692400926,0.4699829260734977,0.7068960178361305,0.33316819336202996,0.6185512744128081,0.4494729987350754,0.8304076941421707,0.4358414951729667,0.8620743267721289,0.9691866011871578,0.8173787792980483,0.3705934939933051,0.904972836592264,0.4976689816321629,0.7672748678311362,0.4638154384496478
18,3.2368321521128784,0.5987329211510571,0.5426046290424857,0.09553193152085421,0.38048204276539466,0.12372141578337222,0.5587733581453052,0.046051489631913675,0.8668052375301266,0.47207894982211795,0.9685509121431891,0.8549856558695956,0.8955892204973148,0.6097928665701119,0.9041682583654809,0.599849204937897,0.5559132178329151,0.03754305036090169,0.5878048136224105,0.4023274929689547,0.9716980459950756,0.8410489176697755,0.749063374110399,0.44655874551100233,0.5158802621593238,0.31794274415763774,0.7053237126098846,0.24742661564597293,0.44946146927129493,0.052692141046449426,0.47216380961200727,0.019613258765635026,0.662799957579949,0.1159936219989256,0.5910974351019337,0.07480895081173501,0.41526857807613593,0.02153441800318201,0.5771178445728793,0.1020387703014952,0.7911218292368338,0.17876696961023406,0.6148934766655604,0.1555336108338712,0.8576690247161131,0.2253552416212369,0.8903322786430334,0.9759126679789225,0.7991344793568449,0.4666931156895665,0.4908259151440596,0.05837415230941077,0.8206591497783341,0.5423317410666433,0.9460640335455058,0.6478145777785809,0.6881950505970295,0.3234193451209628,0.5842490842490843,0.3631298225748655,0.12386981360893906,0.8413163125452966,0.4705165048610752,0.7813398683035426,0.3573439839935365,0.8260640631218715,0.46756391281265675,0.5556109670412483,0.3532534827549393,0.6691570762584274,0.2681138854792461,0.4740561474088124,0.28862564925345235,0.6966688674745619,0.24987277608056757,0.8751326455138269,0.9721755008348433,0.7394621118916626,0.2815983477298006,0.8880206319816062,0.5074425653187193,0.7009053194650657,0.3945796747934342
19,3.1331971611797185,0.566826959774063,0.5628768737456609,0.08390003178592292,0.3671399979795591,0.12104413043378905,0.635219544901003,0.056961534316868095,0.8375894449368154,0.42379639823830567,0.9585940451197036,0.693601578669158,0.9275304855582811,0.7182946267777663,0.9310920906975544,0.6196376140558266,0.5825877544695361,0.031774351800223206,0.6919751120552657,0.48482672669073995,0.9926625805437688,0.8956400601353881,0.6995901393462294,0.4311514814111684,0.5980506444319068,0.37700742453575603,0.6842943147922798,0.24194948224833412,0.48892964340666406,0.07392894555639871,0.6637798452791622,0.03760464466219148,0.6862646868040461,0.12159099816485963,0.6207956464151687,0.0772428956290689,0.5141570273218352,0.0276845459233835,0.6875830349134413,0.08934183492699628,0.789365411779302,0.15819420368995596,0.6204265171683876,0.17018086763975643,0.8272999451599994,0.19933589710015517,0.8861431716482864,0.9748016665453276,0.7912425892694981,0.44959719148499977,0.5415499785142838,0.06958416306388404,0.8870620982136705,0.6464216778148564,0.909027947102305,0.5538679599124154,0.7178826137619857,0.3269986271560554,0.595467032967033,0.3544225270613979,0.12482881656166167,0.8029916339175159,0.4184168254685405,0.8260416711177961,0.4429945208045518,0.875461909866569,0.48482590461943115,0.6453309115597692,0.40582825337599476,0.603195746834578,0.25222406808994013,0.5426768408336842,0.32265433290904827,0.6715178287521198,0.2356254585020326,0.8620143249607535,0.9686512829663428,0.7994882328469534,0.34054046282318484,0.8452652247339614,0.4392546309013314,0.711673350225918,0.40325859609291453
20,3.0555755532103617,0.7656667429967178,0.64877916440586,0.11009294910137798,0.37583838103793576,0.13407915556889716,0.6625423605124766,0.05251860903645062,0.8802284276962564,0.5243755793260446,0.932997741867738,0.5650806023276653,0.9017072827721859,0.5916054250974802,0.88022877417349,0.5135329740379948,0.5264991001399082,0.03300562180837386,0.6346199401844053,0.39185631286888356,0.991118235633087,0.8824453550033489,0.6637401794741666,0.40285157336038147,0.6580954404496157,0.506618308679255,0.7245282029635587,0.3112959762777974,0.4931639215712116,0.07252773799470687,0.6016189792658203,0.029842400372406673,0.6983335816511159,0.1063443369512954,0.6290302131747102,0.05463127804880828,0.48585692140450654,0.032547671247319734,0.6981998892493156,0.1315967182001803,0.8247976552174395,0.21495372678671018,0.6387313860594587,0.15885724271644636,0.8524631418026901,0.20926775101026024,0.875085245599484,0.9722790340549419,0.8268869893651788,0.501346777369192,0.4736119990352492,0.06317429130362183,0.8728523211857974,0.6052555152176378,0.9476324115255158,0.5836593810060313,0.7184884402747472,0.3242830483249448,0.6959706959706959,0.35311883074017275,0.1229329288027749,0.8490286079677507,0.5151767843911341,0.7769172260846156,0.3258844340403977,0.7961666564988393,0.41018630674070944,0.5836407212592288,0.3240850372733881,0.5707465676340004,0.20711668568294947,0.576484446315053,0.3880492683735858,0.7034871396269078,0.2535686426435153,0.8563658525540393,0.967987136499699,0.8057728849808058,0.3356183647027345,0.8947921541497954,0.44972962308134884,0.7060473716192007,0.39093956474838526
21,2.9501105890448027,0.7545225555301122,0.5770756656577477,0.1270091452809074,0.3873385629229166,0.16956776575175897,0.6835396056538455,0.06361071848426901,0.8447158227676164,0.5080393823624925,0.937829695361821,0.7651964885180175,0.9007870810297687,0.6551405911469236,0.8837133310933368,0.5128451293321298,0.6207648779283249,0.04562886531454699,0.643829039184913,0.4104308261020677,0.9759761118969039,0.736099927168059,0.7879654053905196,0.4926445288191952,0.6680261708521091,0.5460541311002561,0.7550172181874284,0.29340868647081314,0.5107988672568705,0.12078223039477878,0.6368283881978231,0.039031595318277254,0.6837767378070005,0.10413944133135786,0.6215309887893847,0.08011401147039036,0.5754381992380275,0.04461242934231361,0.7229576876935608,0.21471295805518797,0.8359892021766492,0.2273386532308644,0.6368839630351332,0.2739839835218566,0.8336965336461402,0.18169193534840586,0.8835322909306874,0.9745018359265857,0.8449342256990674,0.5366021008681657,0.5284030767756259,0.06614943170691315,0.9053001192963493,0.6641430623422123,0.9405598151495597,0.5738876191065684,0.7343410623562641,0.3491617582894561,0.7216117216117216,0.3692835343564045,0.14213927390938186,0.7983258267416449,0.4805388515430257,0.7838951726967006,0.3897585707845812,0.7979797979797981,0.393042048680599,0.5984638769608375,0.34210909807951906,0.6909930957602886,0.27701267322525924,0.6034233958468846,0.44342858050913453,0.7477349712054834,0.27815948946747004,0.8610561828281609,0.9687675435757366,0.8116054208971193,0.358084267902854,0.8854487557734958,0.48744842852693465,0.7225645482769835,0.41458989329131785
22,2.8541854208329736,0.7987939851919701,0.6023097000045761,0.12348014364146123,0.41749149127110646,0.18699946433379808,0.7328528294313771,0.09879980988405831,0.8015815164785437,0.4006762727269001,0.9735302262963207,0.8582974503563928,0.9136148197452116,0.6324751255949788,0.9405368044915183,0.6072873902069638,0.6630416090014987,0.057984536846871076,0.6716174697829482,0.4705287448935166,0.9789005186232909,0.6962462842559988,0.7385948878188106,0.45818799534527993,0.7353477213705981,0.5753839740673296,0.7620510948710105,0.27041656541131587,0.5763225220832193,0.14729804327067017,0.6279598876802127,0.03700522175184699,0.6639600028366782,0.14072313753498916,0.6072324576842533,0.08176965114713176,0.5705328971411621,0.04311692426947891,0.7151150330940728,0.16917037007809094,0.8066865387203357,0.22034012826362992,0.6414372370071131,0.25815375853221284,0.8175733617343839,0.18724349626719866,0.8733515600200698,0.9722359373336068,0.7368331184807242,0.4700223633024426,0.5552397500495014,0.08395519129465596,0.8922028061904681,0.6782194818875467,0.9378918080437348,0.5724005126337279,0.7390299877760276,0.3517932583382257,0.7165750915750916,0.3825774546123789,0.14422454044056204,0.7723513451668792,0.40392772343952876,0.817282916636399,0.3516911178926589,0.8750090784171889,0.47530565898919375,0.6091728756694583,0.3690657971039495,0.6250072074880997,0.24442147482310309,0.6638254521801397,0.4596175624810924,0.7583032654395139,0.27043703130911834,0.8512121120637605,0.9661044307149119,0.7889936922686351,0.34294972632630094,0.8802439619915763,0.42335828976637924,0.7294526692667298,0.404645759389709
23,2.7670198219003193,0.7904740096175864,0.736734812282227,0.2374686872334844,0.4385274066463445,0.25366678658161945,0.7730339324998822,0.0927822286682353,0.9138118826232283,0.6076153572331159,0.96427485304192,0.7303525620119392,0.9652570111124972,0.7505567429148092,0.9671665501357244,0.7982391577322945,0.7233316052155979,0.11766221073219893,0.8213131769931273,0.6876776426946344,0.9912299229922992,0.8913282041001065,0.7408660380940016,0.5232564832124789,0.7264459325665471,0.6259492839646946,0.8299502622801477,0.503835107021169,0.6407986036749904,0.1510197206563451,0.8079660725448239,0.08837240046027096,0.7845903960224047,0.13464164769930048,0.7037353304416827,0.07732753100518452,0.6846290615203927,0.08337996559041178,0.8369259866214972,0.11003909058202102,0.873448706949298,0.21361332500750607,0.7088190438039208,0.23354352021402572,0.9009105769210408,0.20089542572533722,0.8785109616113211,0.9743301017493973,0.9141877453462128,0.6912228116563807,0.7753387949883515,0.25730259957252427,0.9267152220583803,0.549158455923745,0.9578949292167461,0.6560220090297171,0.814311659933504,0.41634292811010915,0.798992673992674,0.3965258549865458,0.1735714323568598,0.8955758548465156,0.5923107033041759,0.8525315887754621,0.4278842848111769,0.9069375085337121,0.6019217029962627,0.7444436861820087,0.5718383134590862,0.6118073603936249,0.285014750769419,0.655007734480478,0.5316114668627379,0.8222302943046919,0.46621843496249266,0.8506949266392947,0.9642393575249328,0.8348207601825272,0.32928102571279444,0.9019573931267422,0.5320267148656538,0.7702302693137821,0.4978107443295992
24,2.785305857640188,0.7516220135867491,0.6431944544319439,0.1453978284445323,0.40476289492031264,0.18368303294069946,0.8174991676130792,0.12787416504651583,0.8661299165201861,0.5229630125291704,0.9692441027220374,0.8414680864624139,0.9382798386176253,0.7593154620994912,0.9432187443796766,0.6522668787608854,0.7111987698657424,0.06311353027737433,0.7422562902623062,0.5602337526505078,0.9873305044790195,0.7809726341499342,0.7746997043515207,0.5360898211057206,0.7981037984576159,0.6734908105845754,0.7597409991891821,0.3539779239529847,0.7113644151282821,0.22888239715122738,0.685476151889691,0.05244314023808615,0.6974422400909819,0.17479168885863575,0.5990556891336385,0.053811073340475635,0.5753096384769107,0.043268673746199714,0.7850649929675564,0.1719346433372404,0.8033548878506352,0.23100658664785745,0.6524925513475934,0.32192076133185943,0.8870754399374952,0.26556344802867393,0.8774797816893476,0.9733711377823729,0.8400915428316257,0.544562502692538,0.5552496239999662,0.08893131896358028,0.9046613056209492,0.6907992922496933,0.9440228963935555,0.6608128909442478,0.7731037164136473,0.39640542571546267,0.7060439560439561,0.3727386122993912,0.13393740888071734,0.8229632340454033,0.5091904019430544,0.8199610722023049,0.4297989026999508,0.8762749729100031,0.5125710520404427,0.662879437439266,0.4360627994935598,0.6366011194563738,0.2713508986357783,0.7098111748211231,0.5266351366744704,0.7365345887507067,0.2956033011636073,0.8531857565511412,0.967166606294976,0.7967323359554891,0.3294353512669673,0.8709453272834558,0.48102553473577586,0.7416934210649688,0.44479794489357277
25,2.621099756643177,0.7600183192122739,0.5477247841065838,0.07427686017591593,0.3765588992493111,0.1420212046692861,0.720389450655039,0.08409445394881342,0.8679345405364901,0.4466564144130722,0.9056519815940918,0.5784388409980711,0.8383416549832852,0.46936238204436004,0.7882014250700231,0.38314959851227903,0.566374366995513,0.036676447807818854,0.585504031601201,0.3295447721792696,0.974894232280371,0.7987749713232639,0.6965613037842219,0.38993207191792195,0.7179651121255982,0.5943562654875083,0.7608518995440987,0.28057256265745245,0.6422389139108633,0.15871160862502554,0.6442313734699074,0.029251625775731392,0.6311033312101622,0.10886452129760468,0.5296031239372587,0.038356160827390746,0.4974620292421099,0.03171051020089503,0.6223753848736147,0.16198694133111363,0.8237542791807159,0.22775404077610978,0.6443685043256359,0.2747890926369211,0.8271172157371746,0.23990478294229223,0.8754657737638109,0.9727597494145505,0.8544109409135417,0.45888387556056925,0.4770471464019851,0.054829004608032306,0.8824240407009664,0.6234141603524658,0.9150752771014982,0.4944319962701985,0.7116159636035212,0.31420388580570124,0.6410256410256411,0.3480247255843043,0.1191108263559475,0.8184664547439826,0.44510470416783976,0.730948453784457,0.2702463412988386,0.7109490068937869,0.3133030031943561,0.5396550839163204,0.27007167357832335,0.5829752724430501,0.18482500057062048,0.6302614964989861,0.4375808551569693,0.7494716956967213,0.24313286580825694,0.8520494958338365,0.9666790784742632,0.7782719100312399,0.2743723841062814,0.8532117931918529,0.40568911077190795,0.6903895807835034,0.3572832584985095
26,2.563279882549976,0.8257384932447904,0.6270341539789108,0.11937877123649741,0.42016114601581295,0.17837905017836742,0.8023198889542635,0.12344479464855093,0.8831168653582382,0.4662628716499091,0.9286289218735219,0.7265081265267839,0.9040293698776339,0.6903462420154904,0.9321557695712729,0.630985534301123,0.6755237425108773,0.06026369853529845,0.6907392136381945,0.47614424576134373,0.9609563623028969,0.7051908546400232,0.7578854962094835,0.45218719821252024,0.7723103997249101,0.6439340716101096,0.8510834501026546,0.47181066868795746,0.6737873586130321,0.22371992843083277,0.7317210791431151,0.05264424926109866,0.7142859931204046,0.14113736492557155,0.5699548502765365,0.05552503492278653,0.6096725582987017,0.04906572186419055,0.7454731219778664,0.2147430583508686,0.8612397158139266,0.33586003315236773,0.6755751706345531,0.29287738381078804,0.8916279010677919,0.2813355317313948,0.8804261767988614,0.9737704124647453,0.8725922495634801,0.5281707533193878,0.5432107111561422,0.07565263214060293,0.9321662443460063,0.6861792920619106,0.950280137881599,0.6125242581655143,0.7725169647707661,0.38029784380022347,0.7303113553113553,0.37304080002152357,0.1265887759599651,0.8319870900974383,0.4580196519019562,0.7720405686620546,0.4173427625656848,0.846168036418252,0.47674139521604414,0.6165799331095876,0.3684377784366915,0.6347848324552655,0.23148106909305682,0.6825334659764849,0.5026608016150044,0.8216605868428491,0.3793444391310974,0.8546933492331844,0.9663312139614223,0.8256405522209026,0.33660398079354353,0.8694620220969743,0.4423719199319644,0.7389628397395015,0.42781125350967547
27,2.4634089958539453,0.7932218914586673,0.5905460420085116,0.10991616798105548,0.4249001671167357,0.177229622389731,0.7688826402857026,0.09131698190945073,0.8687590010135285,0.48234844651076003,0.9498676018574992,0.7219370375375121,0.9357991167989766,0.6934673549252387,0.9164940631957872,0.5974420481177536,0.5763277897080195,0.03252960063826291,0.707543025314995,0.5479906194784798,0.9709059667871549,0.8508088551523512,0.6311309439507136,0.29190534376056465,0.6630190203067224,0.5118341786925766,0.7336095612367708,0.26195162816959316,0.6435980079799415,0.236077215195596,0.6441463729241841,0.043766546620703874,0.6748808887911522,0.1482542453046269,0.5521988676025751,0.04944361582732262,0.5640595257247061,0.042974751116009,0.7232132085552281,0.10621569386672315,0.8178241033423627,0.2384879795772074,0.6588025007374311,0.31819341178367894,0.8951037831130912,0.2872536956001104,0.8577284633264728,0.9695315803556379,0.8675020956934839,0.5319657290863824,0.48453331233912045,0.06315137157705117,0.8955412764769289,0.7206284391983921,0.9432922165003265,0.6170721284806345,0.7392670208403008,0.3608775662538299,0.6897893772893773,0.3864458473753144,0.141031718942225,0.8332555964571121,0.4873235150942519,0.8353003764587241,0.45213825901754257,0.8294070994674964,0.47088383199389555,0.6326702619971699,0.4360060237956221,0.5225386161195738,0.1445462205353222,0.6065395989002279,0.4139136994377173,0.7241638770138497,0.2409763882044944,0.833846304794107,0.96304458424754,0.7554447752467555,0.28922932588428674,0.867981768978778,0.46845879273219676,0.7115994657099189,0.40977748726228125
28,2.415547379036276,0.8143653156247614,0.49459457471775325,0.09682717299492241,0.39075272295180075,0.15792351778256397,0.7613105799038231,0.12806022994899288,0.7728726704479053,0.40210018498277195,0.8632306471925824,0.5274306116188723,0.8688715226187215,0.6184019563057589,0.7520964677531115,0.36702710686366424,0.5709557163006018,0.04306711157848002,0.6448197244266656,0.41914729889392527,0.8894735187804493,0.5151197654433363,0.6269593104682772,0.35715009881232507,0.6474721643396375,0.5256709535587878,0.7267144719600015,0.2935975132261908,0.5999600508713028,0.22178163326387315,0.6421854070269323,0.04817000427462159,0.6729457992763869,0.17322231784008316,0.5479091218252004,0.05212654785639441,0.5472301549145547,0.038143249866196785,0.7573406048126343,0.24792750697863197,0.837757822862681,0.32318340620701935,0.6564167444543985,0.35244759402056947,0.8728969706722451,0.2334807787157292,0.8491978414687843,0.9675636961334423,0.8848824926210457,0.5636359018962529,0.52017366567383,0.0857090551243655,0.914888226331119,0.7469178936284289,0.8895760727485389,0.4682693660001561,0.7112401876822587,0.3323741656969021,0.6964285714285714,0.34809179176263566,0.11803087374746908,0.7314513833576112,0.4048777573980973,0.7675271234024007,0.35930602875525763,0.675658657323886,0.2923950611414593,0.587558604937105,0.33596634317510854,0.5258658061815689,0.1684590494997074,0.5700745297818494,0.40221037675135407,0.711124918297767,0.252886297607403,0.8350199251298152,0.9631606941028612,0.7886948458159426,0.3246072811849404,0.7879860418743769,0.36379671805816544,0.6662776025331781,0.36233604376562034
29,2.3651832275723295,0.8303946263643996,0.6062792951513052,0.15342656041140687,0.48230737066800033,0.2600072079275859,0.748825156177071,0.11935931548367126,0.8464048545808152,0.5282975724531207,0.9074814092409307,0.5149061831945648,0.904654577276718,0.6835191314549467,0.816000285111598,0.5076439306763539,0.6885961237668264,0.09474974850348108,0.7239829680928546,0.5542428445130819,0.9898764733616219,0.8834633885735782,0.7207632815604259,0.4946891040759576,0.5847858677598967,0.4754573816689669,0.652571140234055,0.26271085923215703,0.637219326482401,0.24779151417356038,0.6219671838360051,0.04890069976852554,0.7063123898428703,0.13919784682219993,0.5684023158064304,0.05150783761621346,0.5678779895607732,0.05980503288371679,0.7451988679151972,0.2031844901356013,0.8006178053917253,0.27779494318872416,0.6671198350341815,0.4000545220465327,0.8938356875009262,0.2969648091587866,0.8709790597896763,0.9723682509007305,0.8230262273321308,0.48946566149590487,0.5779191610459753,0.11319464651897675,0.8921057992645689,0.7046426020558454,0.9261286294521401,0.5818591079596079,0.7396755215273009,0.3747853775145852,0.7696886446886447,0.41446118369465235,0.1544098102361683,0.7999826188317782,0.49848904589235693,0.7959377924392048,0.4084170728042862,0.716133872518687,0.35690076523918257,0.6365201936952228,0.4179776654885879,0.603293982227936,0.26902252213143135,0.5204730058432224,0.3646300532195045,0.6481250441633692,0.24017881307411082,0.8514219297186331,0.967021409577038,0.7570881348489881,0.30777779633413793,0.8471982013144241,0.4430395856528728,0.6900578144814653,0.4025331399681525
