epoch,train_loss,train_accuracy,train_1st degree av block_rocauc,train_1st degree av block_prauc,train_anterior myocardial infarction_rocauc,train_anterior myocardial infarction_prauc,train_atrial fibrillation_rocauc,train_atrial fibrillation_prauc,train_complete right bundle branch block_rocauc,train_complete right bundle branch block_prauc,train_left anterior fascicular block_rocauc,train_left anterior fascicular block_prauc,train_left atrial enlargement_rocauc,train_left atrial enlargement_prauc,train_left axis deviation_rocauc,train_left axis deviation_prauc,train_left bundle branch block_rocauc,train_left bundle branch block_prauc,train_left ventricular hypertrophy_rocauc,train_left ventricular hypertrophy_prauc,train_myocardial infarction_rocauc,train_myocardial infarction_prauc,train_nonspecific intraventricular conduction disorder_rocauc,train_nonspecific intraventricular conduction disorder_prauc,train_nonspecific st t abnormality_rocauc,train_nonspecific st t abnormality_prauc,train_normal ecg_rocauc,train_normal ecg_prauc,train_premature atrial contraction_rocauc,train_premature atrial contraction_prauc,train_prolonged pr interval_rocauc,train_prolonged pr interval_prauc,train_qwave abnormal_rocauc,train_qwave abnormal_prauc,train_right axis deviation_rocauc,train_right axis deviation_prauc,train_s t changes_rocauc,train_s t changes_prauc,train_sinus arrhythmia_rocauc,train_sinus arrhythmia_prauc,train_sinus bradycardia_rocauc,train_sinus bradycardia_prauc,train_sinus tachycardia_rocauc,train_sinus tachycardia_prauc,train_t wave abnormal_rocauc,train_t wave abnormal_prauc,train_mean_rocaucs,train_mean_praucs,valid_accuracy,valid_atrial fibrillation_rocauc,valid_atrial fibrillation_prauc,valid_left anterior fascicular block_rocauc,valid_left anterior fascicular block_prauc,valid_left axis deviation_rocauc,valid_left axis deviation_prauc,valid_left ventricular hypertrophy_rocauc,valid_left ventricular hypertrophy_prauc,valid_myocardial infarction_rocauc,valid_myocardial infarction_prauc,valid_normal ecg_rocauc,valid_normal ecg_prauc,valid_t wave abnormal_rocauc,valid_t wave abnormal_prauc,valid_mean_rocaucs,valid_mean_praucs
0,5.118986559372787,0.5079001602931074,0.4408787891664324,0.04029901365619011,0.6593648469700356,0.027125783508897505,0.6649625173137612,0.1882112645350759,0.9459832233114736,0.24884148558773228,0.9218987229928213,0.3918023936511871,0.4095812264680444,0.015663735580505184,0.7441594060548459,0.5239554928050365,0.8570179684635131,0.08850800247917652,0.6258902156679924,0.16547119745345926,0.6495759261069195,0.44148675967997086,0.43214290421105006,0.03469601210017826,0.5942613055686934,0.025563224406924885,0.8858302618626367,0.6617036441276525,0.49984970810190443,0.02001471867874363,0.5232154896216791,0.023431328111460033,0.5553831854613356,0.036992098325826436,0.40717230573483226,0.012573187120657308,0.7297345052048464,0.08626505023974816,0.5880438063135041,0.04700212002240653,0.7028406696832196,0.11930377501491848,0.7255863577321977,0.18710994217111432,0.8030528421111919,0.35515294824222765,0.6530193720055877,0.1700533262499586,0.5178571428571429,0.6639143825977831,0.21791058614160755,0.9141544870621662,0.4197177898771405,0.7470888555253418,0.5173964075144895,0.6488170109532464,0.19504651012647745,0.6256594806146042,0.43935846627053365,0.8889494828873545,0.6762723854710819,0.7988437897044143,0.31052349661966355,0.7553467841921302,0.39660366314585627
1,4.737992951054854,0.44637813907335316,0.6544045688995809,0.07201598024526269,0.6834964659663973,0.025475482216655847,0.8089067165451277,0.33544615327642907,0.9715596042766392,0.4321903587966348,0.9270789619707136,0.4866760592048003,0.5738740410048953,0.02338549215788601,0.7617253531958872,0.5083032887829627,0.9596492220650638,0.266025172631333,0.7131979851447949,0.24186847103415599,0.807715476352297,0.6267172085539059,0.46604777092098804,0.03403778763973545,0.6818535410830459,0.03007469265331646,0.9045200980359361,0.718909701859952,0.5756973446479494,0.0356603182303077,0.6738266217804534,0.04066371109914781,0.6059243030518883,0.03294125977146167,0.5947911210621876,0.02073344854641606,0.7857217311364358,0.09255977509047203,0.5951947518830556,0.05421928299287818,0.8241694069022175,0.29706225580740137,0.7974527944468487,0.20884855346696335,0.8514181945207564,0.42033146428991264,0.7371920943133254,0.2274611781067268,0.5082417582417582,0.8096937485997396,0.39001349943130703,0.9205493241299972,0.478026303105493,0.7694593472177018,0.4946579411316711,0.7320629646160385,0.28241309292825234,0.7906470179888164,0.6107117472205644,0.901344605063553,0.7172528273643185,0.8475433342150783,0.3815796447723133,0.824471477404418,0.47923643656484566
2,4.557431630802176,0.5432409739714525,0.598006213677281,0.06710228747685115,0.4856814246207128,0.01625434730430665,0.7849674163082366,0.3052820964563232,0.9261568334629643,0.416203600125065,0.8762981204244469,0.27597921259794095,0.3932879949151763,0.01497983294483455,0.5685927921182874,0.3550569540447559,0.9409105767719629,0.23264912803171275,0.6549068082750101,0.2980699052002132,0.611591177765357,0.47948574710648445,0.3705291570980953,0.027050885602600768,0.4560302429957236,0.01798506237023457,0.9145642949423718,0.7457673241095765,0.5853940998393634,0.037743424385926955,0.5564084416707933,0.030378507541225452,0.4946378771154406,0.0362921679233462,0.47766890041355414,0.032727333188699234,0.6728803415819249,0.08017442154412742,0.5927378159802605,0.05429377048222248,0.8150083742163068,0.2890841834315389,0.8443974004518796,0.2965277040281708,0.8001463192792126,0.3536106874166308,0.6554910283601983,0.20284993560512674,0.5290750915750916,0.7851041793736561,0.35386317722932964,0.8642783892999596,0.2939411372791087,0.5585358185676306,0.3399111886132304,0.6514101050050933,0.3209390726999306,0.5894950450130366,0.47096129987290064,0.9091386275729423,0.7293291338998718,0.7980215181281444,0.3296886582769352,0.7365690975657805,0.4055190954101867
3,4.435080873776043,0.5111060224410351,0.5539003817766999,0.08975655710958724,0.5806045105488888,0.023544296411472182,0.824687832680833,0.3344897686286091,0.9622431973326281,0.3934673096823897,0.8324636064456135,0.2926693698289889,0.34275850426055565,0.013679091325669754,0.6675702111536446,0.4359795786666092,0.9490638587668291,0.2783279895815059,0.6600953788451022,0.318140384843865,0.7281100364405141,0.5345959348783365,0.3722747280988169,0.02819487008045408,0.46757841052286914,0.018621994988963553,0.9253949573888434,0.7987027191134357,0.5629999564088434,0.06289236753820945,0.5417851219206606,0.061260093236817845,0.43231194559624764,0.021272718401422423,0.5556514695446858,0.021962344319471007,0.702555203507479,0.08362492567732882,0.6244776031147449,0.08032711720606972,0.8599246638138573,0.4331789774603657,0.8110329188500315,0.17894447239330386,0.7856442032819377,0.3811215201149468,0.6701422136500148,0.2220342909767192,0.5684523809523809,0.8270175111283329,0.3924483996488952,0.8023773832660804,0.3174206821017395,0.6600694918358466,0.4203729319151328,0.6494341854897783,0.3275204532637418,0.7030090682000798,0.5130233126231053,0.9148499893423813,0.7678968932392826,0.7766747088910075,0.31970738928478837,0.761918905450501,0.436912866010955
4,4.320601539824375,0.44637813907335316,0.6497781413227517,0.09504211031403015,0.5652251169522629,0.01966678957268252,0.8145917926983286,0.44300950969883296,0.9256699768638242,0.4571146220491677,0.8354875146912639,0.4031554633539184,0.37511000214807344,0.014370368470863634,0.7683855526686034,0.5618615171405923,0.9432902718843313,0.3008580659173332,0.5862692869816316,0.2117187925276364,0.7167028331512069,0.5335319891105096,0.3976927524867303,0.029460191631016132,0.5403683136487063,0.02306633602648982,0.9278631582007046,0.7972925209405666,0.6371325737194773,0.13372746249435957,0.6559891622764887,0.058161052754183276,0.49060437041493743,0.02448613187514068,0.550973414590466,0.021117054642859526,0.7246262676527326,0.08989712364499247,0.652791112681867,0.09691144892423892,0.8716935608522857,0.4348266004280779,0.8551530476452123,0.3538942703121789,0.8199306091903127,0.42506925509012117,0.6956967651237363,0.2512835762236269,0.5501373626373627,0.8131675903402164,0.4909285983802554,0.8079856662686689,0.39078367711640377,0.7672840089451637,0.5447768139471854,0.5672213051212673,0.19202425282252394,0.6928760788643705,0.5153429386610908,0.9199913243244254,0.780789524769602,0.8038448815295732,0.3469772300798625,0.7674815507705265,0.465946147968132
5,4.21276655883955,0.5465231661705213,0.7697730422503906,0.2384632548887234,0.6325610379066724,0.03467941105642184,0.8296445320968007,0.4572230878188079,0.9672298377703992,0.40072313372102275,0.9148830781038476,0.6219499317793712,0.4270095982976676,0.02050421948646977,0.5781578258390337,0.44064527205406584,0.9755547173764996,0.8026699737536089,0.7125298931003553,0.3335960728515359,0.7694842735273166,0.635412324337119,0.46961774037843773,0.041393726803881224,0.5079903820394178,0.02906747264356318,0.9359832033651967,0.8273126539317494,0.7047782413765957,0.21141014717498832,0.6898055891986707,0.12449211595089395,0.48704581784637246,0.02592721560088529,0.5063228300021956,0.02551002837532591,0.7248267734765541,0.1073333606835392,0.6908960497276375,0.13023251272976663,0.8589159465828751,0.4456203278268417,0.8197094114631142,0.27291884892424495,0.8184512985087057,0.44311389852029515,0.7177805054652162,0.3031908632233237,0.6069139194139194,0.8132186176230696,0.488394920009786,0.8957412781830385,0.588185236132871,0.55812110734313,0.4098302447571608,0.7027754701951681,0.3596816255328031,0.7430195630428484,0.6050647290481705,0.9233229831858926,0.7903222181007166,0.804350849286112,0.38063190443076833,0.777221409837037,0.5174444111446108
6,4.132829721988899,0.5415617128463476,0.6315134929299401,0.17643787200330788,0.6344875005131152,0.023670292144873102,0.8756189606948221,0.5448216295679545,0.9740780322800978,0.3832971195902296,0.9339384141521311,0.6396702222045977,0.39384832081760335,0.01781590342352803,0.5991693807290774,0.4464422598016309,0.9590945570747552,0.6058835828563962,0.6987597652023904,0.3629233694118247,0.8047588834592899,0.6717524754918022,0.45832548078982316,0.03482266097586197,0.45870097998683645,0.02068725048728862,0.9232292325111705,0.7724300935133371,0.7237810578858028,0.2278859677020584,0.6690187430269259,0.09576048365406432,0.4900572316241804,0.03860367933859045,0.5954580230178588,0.03838417292195003,0.6683037071713288,0.08934556102654576,0.6938940532802952,0.12253719468051147,0.8628082103315173,0.41645723327557943,0.8923946770457476,0.5355991400308929,0.7970785276757344,0.41542608975061907,0.7153780560091111,0.30366610244788383,0.532967032967033,0.8643607118624879,0.5913164169296463,0.9141661074361678,0.5934284385435956,0.5792821704503963,0.4171643929226465,0.6812992912102815,0.3639256065892739,0.7891392042504113,0.6589813763812783,0.9143389222467508,0.7535905304192585,0.7866647611506713,0.3693762447598263,0.7898930240867382,0.5353975723636465
7,4.061391732845768,0.5263720326692619,0.8576465656440193,0.3081270165646052,0.6326315437394621,0.02719243042602787,0.9295591324312886,0.6208524154518055,0.9753029467038846,0.453988772682454,0.9555879869029908,0.6794359508519129,0.35229695823981444,0.01408148943298753,0.6721944906361116,0.4552262096653589,0.9840875897113521,0.810301084402603,0.6272906056859714,0.238601511642062,0.7583390054127008,0.5855358988513288,0.4700669003759337,0.04292253427386993,0.4438404371078647,0.019213493370417563,0.9396052964548078,0.8284153131706012,0.7630498585239254,0.2458818218723648,0.8079611625867347,0.1372262470474214,0.4332267495654972,0.02190121356875723,0.6848680320922212,0.046767923637082195,0.6326189246989615,0.08336119140639439,0.6990376993926576,0.173268789395003,0.8675806666765479,0.4612701926508798,0.8806081048590992,0.5477391512085626,0.7530230929211308,0.3999390713227037,0.7327465341074081,0.32732953285887295,0.519459706959707,0.9217847430018872,0.6410972864717798,0.9426781475961804,0.646581349373239,0.6632454448842368,0.43600721926810004,0.5986123182912167,0.2262293833742345,0.73907333817991,0.5642133610346176,0.9246127420245487,0.7846270236747102,0.7433684196822048,0.3166215898388222,0.7904821648085978,0.516482459005072
8,4.012106035858718,0.4143958476452179,0.6082648281677987,0.17785263130348142,0.5241954733354922,0.022591092104636543,0.8361250795152201,0.5506533760331008,0.7424940679003328,0.24701806934412718,0.7750246858544216,0.38994163243247565,0.3975740628635897,0.014771745688187841,0.6380586846254502,0.4405886312600947,0.9516858923987637,0.7863640386464344,0.6622789951394051,0.3006298883559452,0.6351971188195179,0.48396372750098865,0.4307567929992653,0.03341776811284572,0.40357432255888026,0.019050446814302666,0.9374775075690667,0.82335367241904,0.7295803082480324,0.24693043643654877,0.6465091373374938,0.1074269409276058,0.42087375751720113,0.02306977332465248,0.5534461971227302,0.07554506417315406,0.629316256496948,0.0766036762467097,0.7102601533925079,0.1865697977962465,0.8614510791199346,0.47651916795715626,0.8793758034002148,0.5631481036372574,0.7578231382189912,0.4183275436894495,0.6696065155727844,0.293833510191111,0.46474358974358976,0.8203680183315514,0.5731384992264112,0.7440082446553542,0.3703697317644067,0.6152825752458813,0.4086076973281984,0.6203762629120815,0.26580435132172703,0.6058702793705281,0.46344995967628466,0.9231803830011605,0.7949241297435812,0.7455325414198224,0.34065870962416045,0.7249454721337686,0.4595647255263957
9,3.957953092879207,0.45439279444317227,0.863182164360099,0.35848999724212655,0.505718194077662,0.0187362291200699,0.9209373944241166,0.6340537000276408,0.9914600219912114,0.7228566735235715,0.938590037754631,0.6663638847760681,0.5030485634680111,0.020304397337560637,0.7230916142253692,0.5184940244493441,0.976932893289329,0.7778914848773083,0.7013510230656959,0.34379088773083843,0.5256516306630764,0.3184973048728028,0.49487778037698804,0.047043377868647464,0.3944635539488872,0.01831462533834078,0.9310192668736733,0.8053450285442919,0.801961146616578,0.2688933941504153,0.7958608278791711,0.16219169217223636,0.35504111619568013,0.017964931072281014,0.6917522961284468,0.04143709653236915,0.5702386476924541,0.07382575694886617,0.7199706599829032,0.20917082903131679,0.8849501252427041,0.4892497933690579,0.8764020166436499,0.48172462968939334,0.7192478757640269,0.31816129374781077,0.7220794932120167,0.332400046928289,0.45947802197802196,0.9166054737923077,0.6535525975359611,0.9085400307358893,0.6026865869624641,0.7103376250987199,0.4979843666039757,0.6676808759180204,0.29698873020733596,0.49823938080427665,0.31227576273922597,0.9135106196002957,0.7730194941029097,0.7053829643319363,0.2608310318687102,0.7600424243259208,0.48533408143151185
10,3.924015526971365,0.6053736356003359,0.7260939307964359,0.29374533033150646,0.6664192311025364,0.03143459355038955,0.9033710259938423,0.6515382433927347,0.9421167478670104,0.4449485802373628,0.9311999660515041,0.7027341684539724,0.4676211000025827,0.02337353749219699,0.7275382751919748,0.5982984254401235,0.97582607784588,0.8306750897886097,0.680400065945544,0.33710591873296203,0.7986792137173764,0.6862632533134929,0.5352310954133458,0.06122155486625384,0.4786522948493638,0.024151966243251055,0.9410385291933412,0.8221960444896023,0.8185215571281625,0.39908352492034815,0.7422184966201099,0.1309150119540471,0.5366158716047638,0.04318188632979611,0.6858344779319147,0.034054572471650425,0.7517032825667728,0.10087797761182077,0.7636276928198648,0.23319397008393547,0.9056658825322954,0.5703846535401764,0.9002890939100386,0.5989992253807715,0.84549996315055,0.5032057598278176,0.7601892669197823,0.36916287674785553,0.5982142857142857,0.8819045295483845,0.6475980928390047,0.9072679629193865,0.6621116544004676,0.6976192309352408,0.544717666095068,0.6514747054539863,0.31411611074483264,0.765321650532668,0.6546793108460532,0.924309716631993,0.7741868729383439,0.8248339626862093,0.4105266764147557,0.8075331083868384,0.572562340611218
11,3.8589714497029806,0.4259216853675292,0.7229090534683499,0.2218707066676855,0.5217081947922224,0.02340454877284211,0.9179418881165928,0.6082234138985929,0.9859920770442548,0.6034835620704553,0.9042548287727095,0.5356591805478872,0.3766076691891306,0.01519432331930297,0.6112260872940083,0.42404545988050857,0.9837355545078319,0.7667133648286775,0.7011102431477613,0.2902697340707962,0.6062985031658561,0.4465294794746136,0.4428046265209499,0.045280611860718134,0.3795595185727846,0.014775485097843582,0.9479177061934309,0.8611373751083561,0.7817270425872588,0.25637553561522014,0.616635480493291,0.08890171024189418,0.40453677674691524,0.02097475340902932,0.5839251151529866,0.06344171750783568,0.5860772518600601,0.08073190710276153,0.7362631878830925,0.24362012153023016,0.8706320151265237,0.4542885983043754,0.8567302158725083,0.47827819655752096,0.7183065370924167,0.37031632902874156,0.6934954351636788,0.31425073249526764,0.461996336996337,0.9025203491222908,0.6090701617066456,0.8854143970623696,0.5108870914548377,0.5907823868468298,0.3950653704553682,0.6578664126783453,0.238340306389005,0.5728557997671457,0.4266994906186427,0.9277136727899153,0.8212951189001783,0.7012736776636243,0.2864141325166796,0.7483466708472173,0.4696816674344796
12,3.8200136523111734,0.5822456301045722,0.6988477240486634,0.20115458256322244,0.47139097555747117,0.018565284116249005,0.9157874335960169,0.6586333413616567,0.9797633723937255,0.5356527677888047,0.9041608081693884,0.552800551195981,0.42264825328872563,0.01756092271229955,0.7072855133514218,0.5216610512494798,0.9855349153963014,0.7957562293487161,0.6509051099682517,0.3181697223111207,0.5435322360585966,0.4158635449958406,0.452126364448076,0.044185505381677204,0.4020935932078941,0.016780314151443616,0.9486298739737955,0.8486571126079903,0.8331132088361226,0.2988239084759223,0.6869080344730891,0.08776879095696614,0.3840084361896915,0.01980967673350974,0.7619369830104854,0.1876065317263716,0.7028563859664227,0.10361096445955266,0.7568745157136916,0.28242796098767065,0.8958831886813626,0.4931995935914736,0.8873475549528043,0.6227785597753025,0.7833382665659249,0.44952126494444516,0.7170442158112693,0.3404994627925317,0.6259157509157509,0.8943567811671056,0.6671907320095295,0.8826748938914599,0.500792725571863,0.6825779289636419,0.48472405048448663,0.6048844346019224,0.2655747339829985,0.5170196832962553,0.40662867044200673,0.9304316771850923,0.8124401202315465,0.76383733047861,0.35965202464752866,0.7536832470834411,0.4995718653385656
13,3.7842366577113786,0.4529425234714907,0.686999490092764,0.17842900052019162,0.4550799927631749,0.014404115214452881,0.8494436168034599,0.45292099655182283,0.9810869906389295,0.6549582306216025,0.842995221069538,0.5494048687880444,0.4105648677234012,0.017423785480691706,0.6338205027225429,0.44811048397274983,0.9757720152967677,0.7620647222544324,0.688844175252865,0.30228628864253076,0.5241923133249338,0.29493791179421214,0.4785696399800996,0.04337240513960729,0.40106531812363777,0.01602610728227781,0.945570973644732,0.8542822494103038,0.7792251053832475,0.21687905164881768,0.7028120506655371,0.09438973495915377,0.4155878876699769,0.02021478388270566,0.5753423117819096,0.08521069178860005,0.5846981175503103,0.07426010337901198,0.7493175130575723,0.2639652983568118,0.8819227031250331,0.4138270379518312,0.902240684539096,0.5086949466149288,0.7156677869298896,0.34641222016490597,0.6900372399154281,0.30056704701907666,0.48122710622710624,0.8311586940523716,0.47228578130652266,0.8039519439433158,0.4622910903118952,0.611465161340748,0.40993776185409814,0.6371643713041603,0.24573948374954196,0.49915877275932374,0.29144617919521276,0.9245385749704267,0.8064864613386085,0.6974457800809666,0.2717866249998602,0.7149833283501875,0.4228533403936771
14,3.747167006420476,0.5034730173269216,0.7128095398414057,0.21886616981010598,0.47051031779696456,0.017739762959633094,0.8507030977798822,0.5649864544166411,0.9537726821381617,0.3651560062443386,0.8082078592510697,0.40126846701054103,0.43624284946666675,0.0172094071183543,0.5578517800662538,0.3418124234926869,0.9770948713919011,0.7169813495977582,0.7267525360266262,0.3689475086334552,0.5259737511339724,0.33902703872401274,0.4679834503527055,0.04288456725691389,0.46462819702928054,0.021999439396296325,0.9472590901467678,0.8453047321202518,0.8006621952116091,0.31457457977195336,0.7276846708708959,0.13326377593677302,0.41046161449998,0.02016738066241859,0.5371550562033497,0.08254061686452491,0.6474882196472658,0.09446553327202793,0.7405209767108487,0.29467336678119394,0.8648310440985595,0.4490039017727405,0.7920412039219253,0.39746670241187804,0.7801755052419092,0.43854199323333365,0.6909459322194546,0.29485823534035605,0.5235805860805861,0.8251590018106713,0.5476103801450196,0.7667769149650081,0.3551489186982297,0.536705734680474,0.3137734619265374,0.6854470671396202,0.3132325927085444,0.5012436661984072,0.3296505812593438,0.9245431870393386,0.7961001430645739,0.749781782912019,0.3343220942732332,0.7128081935350769,0.4271197388679259
15,3.704623679606644,0.5073658499351195,0.694280458785767,0.26575170159766964,0.622970914348526,0.027481757002736574,0.9069279931680267,0.6592043193770731,0.9517364223023258,0.41634453655117354,0.8491310892936065,0.39113171816464476,0.4586213967012899,0.021268186962023178,0.6133082169794409,0.3855866017944187,0.950049138247158,0.6114137919108783,0.7131419547911577,0.3879768461626545,0.7951582721457315,0.6868707944302075,0.5090135942354643,0.05417936033903106,0.5250589546586583,0.024674323369485635,0.9354447905801124,0.8241228311618211,0.8289876637026848,0.36943958445320374,0.7704277514930583,0.1660637792416433,0.5418043328463679,0.043968051427942065,0.6174586689386293,0.03993895455764056,0.7058265161918197,0.0995822452218501,0.7353215319289728,0.305266811328975,0.8495344952073228,0.4753854249367986,0.8846491103141809,0.5863354360287993,0.8106282501664217,0.44458503272197686,0.7395218871375783,0.3312078222155749,0.5528846153846154,0.8834257804184397,0.6408366782058691,0.8295222137974512,0.39212472969430967,0.5968933988005455,0.3535760782381715,0.660319361128255,0.31263679098588615,0.758694867912565,0.6460329515342126,0.9130143859154894,0.7738150754218235,0.7776535049954699,0.3639441616554879,0.7742176447097452,0.4975666379622514
16,3.666090411090203,0.6421647202503625,0.7070376187332075,0.26889343784077874,0.615976963786988,0.031487619814458724,0.8535645517730003,0.6259679874389129,0.9663875240343807,0.48418978627923853,0.8814706042274592,0.5797377253223304,0.42469585232845497,0.016475357651959715,0.6114583526684996,0.4429636280569198,0.9525573890722405,0.5850953610719299,0.7151013882004195,0.36940460877125486,0.7102082996666126,0.5182283472279463,0.5369824322676938,0.06778755201478545,0.4844644138765871,0.02014807646673577,0.9612577241699468,0.8866445273793512,0.8527113374092148,0.37841763069813406,0.7558495516350553,0.14323487899780313,0.44879887517470785,0.022728410837704556,0.7205384821161623,0.17470557796929045,0.7137509876988067,0.11918033264925337,0.7836580479796781,0.3541445549571823,0.9218051464905574,0.5730033631811231,0.882977455942964,0.580599418133497,0.8261786281578929,0.4981519220063582,0.742155983064115,0.35187227748940675,0.6151556776556777,0.8321824289146098,0.6206351535712922,0.8448084526600489,0.509154250091432,0.5756171381309181,0.39132509893950296,0.6584456811663532,0.2673441736676059,0.670196832962552,0.4769539483737139,0.93524231436111,0.8220066076759538,0.8022808197979562,0.37777180664147647,0.759824809713364,0.4950272912801396
17,3.614676254777069,0.5032440271734983,0.7528290862854565,0.2639995748256604,0.5532415959327827,0.022176028409166493,0.9195834706066712,0.6032871655635376,0.9575083750192473,0.5297270644868276,0.8714805012247948,0.4737562735397258,0.48099569188437696,0.01832191952267255,0.5797429903721582,0.40343608433118683,0.9350006810204831,0.48020817544906036,0.7201960933289271,0.3716060799203468,0.6490101686697229,0.4577256770964349,0.46426002681945633,0.04846970639331535,0.42205251512315156,0.017805484414596347,0.9602366851696106,0.8952262409042712,0.8098241454669426,0.3015096422759675,0.7225281384054556,0.1354159050545016,0.40441402795510745,0.021785591825954777,0.7944630652462404,0.20937714719157866,0.5947637471911388,0.07242826084178014,0.7759301458763501,0.3724135098862819,0.9173213941640923,0.46924837826349675,0.8641644530569254,0.48273089107771594,0.7543220510104238,0.4472524040439768,0.7229031386286144,0.3226321456962753,0.48946886446886445,0.8963771426475665,0.6200405446199492,0.8329440508042752,0.43245130722456787,0.5510517683263282,0.37332215060298957,0.6654150552146978,0.2821664036565916,0.6041506556543698,0.4239161279924409,0.934786841393443,0.8330201363918662,0.7358049414408896,0.33235540750264214,0.7457900650687957,0.47103886828443536
18,3.6045427157145293,0.6551408289443554,0.798268358294818,0.36367755687532244,0.7351656487980941,0.048885600865173746,0.9310348474027944,0.7443125933587775,0.9888971772681152,0.7301586482645417,0.9274299925550321,0.74227955303978,0.590133728595645,0.041359111280574276,0.8160786958897125,0.6950186742118531,0.9762047252344282,0.7716808887117825,0.7934600990117513,0.4707417403265357,0.8243110904548844,0.7213794738107491,0.6416241915449522,0.12977197503609136,0.5660355017843499,0.03298302962913495,0.9488066228061569,0.8354858318647386,0.9316285721163637,0.5663290464063991,0.8906006688185003,0.28741420295104775,0.5945961936715558,0.05641216423173441,0.7763255800361026,0.07719811452771481,0.7309029643336918,0.1265675779064258,0.8602960251864769,0.4561819263319969,0.9343006206024776,0.5734202384482744,0.9400579596689649,0.742721241683433,0.8698086464987329,0.5155236334012055,0.8211803595715274,0.44225012832560395,0.6261446886446886,0.8988918309306658,0.7114955045681061,0.8919690142727245,0.647997655736597,0.7814693492825088,0.6325689263798421,0.7257524083688013,0.35248668198233846,0.7775514219965345,0.6560263307968561,0.9170272598202789,0.7555746593211371,0.8314943920427547,0.4030761114856833,0.8320222395306098,0.5941751243243657
19,3.5514835259830866,0.5427829936646058,0.6448204374742594,0.2282713705350051,0.5635040904785579,0.030561510041945773,0.8955713782765786,0.6158621151044941,0.9336864544797716,0.37546055094914377,0.8453065681625846,0.5674425422946251,0.47662033085370487,0.021146741668991866,0.677400561214152,0.4863556744110503,0.9766418356121327,0.7023929420309517,0.7660968782333479,0.47095360285266913,0.6039443267383189,0.4649757395630182,0.5365331899008603,0.06430655131767019,0.54029058941429,0.027520469287639703,0.9608807536980635,0.8877913937333821,0.8661728721172094,0.4014142742304425,0.7026904879809556,0.17544302824380556,0.5030675574013337,0.029093060529157767,0.7185109877717157,0.21798682050769988,0.7138704776445328,0.13716941018942116,0.8216590781615458,0.4507390407198448,0.9157843919853139,0.5663395229836028,0.9467129541575281,0.7229319823276231,0.8404774430436327,0.5353713325680264,0.7477383474909267,0.3717968034586459,0.5874542124542125,0.8658229624367441,0.600008834515429,0.8127115271205004,0.5097072202308395,0.6470189203976096,0.4380884989312073,0.7162486679494215,0.3736766213809097,0.5663218035824583,0.4220529330778268,0.9268193053725616,0.7851151178021126,0.8010173798444934,0.3847533664821634,0.7622800809576841,0.5019146560600698
20,3.507799046429575,0.6307152125791924,0.6903945407239376,0.22472502672379135,0.6348459210000198,0.05628629114773036,0.752534049105537,0.5116825211814487,0.981725357603945,0.5604868637329655,0.8905176256826296,0.6037243832762056,0.45255560895992303,0.01875844468322969,0.6948219083539731,0.5304503977771454,0.9795498978469275,0.7244302057740624,0.7416169001561843,0.4317543338837105,0.7078955876993214,0.587643426729608,0.6216271403672354,0.12034034935087135,0.5515506811619608,0.030701231687071995,0.9680906723899462,0.9054326158401816,0.8237811229472305,0.3907847722730224,0.7755028071284955,0.22371916375611456,0.5320090722516128,0.041351015655538004,0.7093427718693261,0.14251549822404458,0.741746380302091,0.14460763558952683,0.7838990162002422,0.44735542622564173,0.9018213655795358,0.5303783688693898,0.8795050518693708,0.6192393188349478,0.8484665835406989,0.5324715696888839,0.7574454573972794,0.38085631185932417,0.6192765567765568,0.728174475036895,0.4799398344021662,0.828767978897401,0.4994633584933609,0.658689745842097,0.47270958989435574,0.6845955157678483,0.3081869088608633,0.6638026313631817,0.5283929853011653,0.9342934746703929,0.8112445010260301,0.8130617795507362,0.3826004052730879,0.7587693715897931,0.49750536903586134
21,3.4623741528776963,0.5556064422563163,0.7153992802463244,0.26604033597148763,0.6108233864996725,0.029149543038453025,0.8689682156082656,0.6420958178044467,0.9400762931187644,0.3363720884341209,0.8493913233360706,0.42028705601491134,0.45069761992202684,0.018806690907058932,0.7509400298104455,0.5627505479904499,0.9474608413222274,0.5116240483790988,0.7491412879592583,0.4172730800596839,0.7222055066931997,0.6096642343481461,0.5654652549660473,0.08653921586460786,0.45049627750528354,0.020759019439429066,0.9627747843467468,0.8931747141940786,0.8774554996099567,0.3730049957698525,0.7666704950211505,0.18368827702633508,0.5052503005950526,0.04777647519181709,0.7665329865443165,0.1501599822302184,0.6653075603407277,0.11608699445636243,0.8367024165523633,0.5143866521117011,0.9293383416299126,0.6640472526723926,0.873980598640931,0.5801609512938534,0.8153086096492831,0.507102127226802,0.7554721322690011,0.3614068227466049,0.5544871794871795,0.8439936502924901,0.6202958770071272,0.8107607568349587,0.3847794485013726,0.7179289986386272,0.4950000751616612,0.6815395408136026,0.2782281464364886,0.6717043733977599,0.54131797556113,0.92516581634243,0.8083237525665615,0.77215532204108,0.34619247326369523,0.7747497797658498,0.49630539264257667
22,3.40855768446467,0.6036943744752309,0.7102227412090032,0.2621805937834832,0.5620747795124873,0.0247704795814063,0.8940537292250819,0.6540321049135001,0.985057105095881,0.6365671033536316,0.8987247791256484,0.5703683322228107,0.4184809278165432,0.01622158193508601,0.6699274897193164,0.4628523629840271,0.9634719471947195,0.6458515414349149,0.6950029960717897,0.4068351161715171,0.6879198452694734,0.5308615948222638,0.5346805387613629,0.0761339224479247,0.4834535027170408,0.029609680567974125,0.9672819990443334,0.9086027857553522,0.8928625336611561,0.4544124779809585,0.7480191994463304,0.1987293162007502,0.5028390307681005,0.03561123610676907,0.7750431050955056,0.202966016904736,0.6809019304490551,0.13969817183577324,0.8111434642753506,0.482535823781248,0.9062271985229196,0.5914853646335891,0.7572409004636712,0.40091498007626003,0.8342180696520513,0.5437822800655778,0.7444930824134919,0.37613740307088883,0.5336538461538461,0.8769843832595431,0.6395682037600048,0.8663213963041401,0.4918735158235352,0.6416915435073488,0.40181955940722613,0.631384766680263,0.27944727495593746,0.6384491136777318,0.46630389764372215,0.924491706378242,0.7872085238063057,0.7837831120390146,0.377986738319602,0.7661580031208975,0.49202967338804754
23,3.366261667153752,0.612243340203038,0.6639125411030992,0.22587011505952237,0.5853831336364894,0.04499905476482892,0.8909088555478514,0.6730671146846661,0.9743139344132846,0.6024409870620416,0.8564501445076631,0.5809030877969331,0.3866417233974333,0.015513540138834403,0.5849056906850211,0.4214917237336398,0.9716420975430875,0.7006094739312227,0.6683027652869737,0.38917027829790934,0.6764621927708897,0.5743965331751363,0.5518826335783547,0.10188970091393257,0.46146118253288393,0.01928352272154835,0.9694355517956585,0.9187290093274483,0.8731207819863124,0.5131481845833787,0.7516809956505915,0.24236259752464873,0.5344675352693545,0.0991884919543291,0.7091149761451419,0.218988069055927,0.7027661329223105,0.12461997943905023,0.8230334515159977,0.5358421957701451,0.8995483640105615,0.5944559175732651,0.8683180149395304,0.561521555570655,0.8294191328335789,0.5592744739310513,0.7378714469123668,0.3962620730459143,0.579441391941392,0.8660015579267295,0.6372555933622908,0.7963449566124285,0.49953243323724633,0.5462910467871254,0.36855869494124494,0.5892660748340142,0.255817614629965,0.6297260955358656,0.5037146833154115,0.9243845069386707,0.7998889929002296,0.774544910112313,0.37653105461818426,0.7323655926781639,0.4916141524292246
24,3.308346291278466,0.5921685367529196,0.6655188306127386,0.2196308903020483,0.5367173852560331,0.02680040329745965,0.9010006565418349,0.5569181061400797,0.9414640688478896,0.4107506124222898,0.9496725312054296,0.6038073764276309,0.4539978418476204,0.02306509939531293,0.6055143872458126,0.3367694621963945,0.9721113730420661,0.7159421657285917,0.6839648627290145,0.3891701287176692,0.5982647600799649,0.46306435033301135,0.5814189601035877,0.08854720651646752,0.5047130652784347,0.02322677016843391,0.9617138556298109,0.8976840737644832,0.8397880233622573,0.3358043043075147,0.7463445429541372,0.22405955802590036,0.5152531647335282,0.04744827806501398,0.6950740673301217,0.13910568810658852,0.6718205250845836,0.10790013121072964,0.7876013818245704,0.4332485353845618,0.8958289838931319,0.5498150319502051,0.877230186929427,0.4467232541088721,0.7948238506416898,0.450001768523857,0.7354471502351675,0.34043105432241433,0.513507326007326,0.8771932761987227,0.5308164494619285,0.9298797581800171,0.5628693276955509,0.5859697534947148,0.31303884650223923,0.6021514618921417,0.2457518797693939,0.5483197319442243,0.40330713108100824,0.9202808874617789,0.7814611785645502,0.7528338632679835,0.31090211366439696,0.7452326760627975,0.44973527524843826
25,3.272025284362416,0.6069002366231585,0.7847192078133478,0.34828696171575074,0.6710634940182169,0.06540899402090428,0.8758275371622553,0.5899612602548611,0.9855215065756485,0.6631570550876158,0.8997872380842173,0.6041898683511033,0.4753535344627202,0.02237882004017122,0.6728357150580393,0.5664987980849968,0.976092409240924,0.6673945601160353,0.7154088636023872,0.3676198542269512,0.7340430074578426,0.6596619716008489,0.5742965658575803,0.12749779084190757,0.49836349143875824,0.029727885114454244,0.9715245894662249,0.9190525841167816,0.8655050165613865,0.3807684191309829,0.7769123376429665,0.1824742561526051,0.4931561736597831,0.04185022965277073,0.6897575848857537,0.18265364406368437,0.6577425756066275,0.12216612351999372,0.8365054549394555,0.5401124560767001,0.9255922825932756,0.6322103162790607,0.8429995568186378,0.508817615471223,0.801262617940709,0.5312803273627222,0.7601941254948525,0.39787135414918745,0.4926739926739927,0.8505235478950849,0.5633599541340192,0.8451904724553562,0.49597299459011734,0.6262530286751522,0.4744601862349104,0.6610072758257646,0.2581434416226373,0.6728153508939748,0.5701905508547025,0.9202249193822819,0.7760847421650039,0.7440584295115903,0.35969846741705946,0.760010432091315,0.4997014767169215
26,3.1987913325309534,0.6295702618120754,0.764195931855474,0.24405653125221666,0.5801212320238633,0.06489497741960204,0.9012527168269977,0.6298455194613448,0.9285990127643782,0.4449804364947687,0.7882407237652018,0.38915393534529574,0.4127368786414097,0.01752779034791789,0.6059553912890311,0.4335130300071992,0.9321623971921001,0.5749822143815064,0.6835935502209003,0.36274208863565,0.6744819791292107,0.5227587959383402,0.5013826516996089,0.0816699498428118,0.4326058124497687,0.019136113131677207,0.9826399897135693,0.9497488756186709,0.8603258016055859,0.3684264276033109,0.758513489729072,0.1809181466460798,0.42822427134178376,0.02847549021438885,0.6355534424504825,0.18265355071771566,0.6642131680293041,0.11009361243716378,0.8253816953703681,0.5462828922859994,0.9153031127523117,0.6161237180616604,0.8590969636104304,0.4706594265364183,0.7882911621837163,0.5014946130575305,0.7237668806656622,0.3518244607016941,0.5801282051282052,0.8693669666911438,0.5851169928993174,0.7442057910133837,0.30425221983502865,0.5695186666713329,0.3596537249301997,0.5966892536886323,0.2062812809496493,0.6115000519276074,0.4359152845551633,0.9296726802228252,0.8044535204987818,0.7332307195216564,0.3283451336186355,0.7220263042480831,0.4320025938981108
27,3.178708157642371,0.7475001908251279,0.6903393007733594,0.3129515980292431,0.6041589699382893,0.037665363710805075,0.8410623160484094,0.5905211620202138,0.9410063298760675,0.42935870173586904,0.8979686931432403,0.5766264586629325,0.5699594763740268,0.04880173455273323,0.7254352310763834,0.5804399550866474,0.9704095552412383,0.6468217553361248,0.7328130962637743,0.4874653667012605,0.7113515855014075,0.6449574683717274,0.6442811792653315,0.15580471694725992,0.5687895856140711,0.037918340223659086,0.9718368761904719,0.9048812912987108,0.8651845890297325,0.538703664505222,0.7463892899545967,0.25396139845859994,0.6084234498547938,0.0904519562315476,0.7614072080861487,0.3007833635564738,0.7666787625519527,0.14946749419145103,0.8511703365044295,0.6198602875248302,0.9168786511477227,0.6884371624213965,0.9016393116263286,0.634364386563487,0.8809062627887065,0.6016690000520989,0.78036772985684,0.4241778466446496,0.6059981684981685,0.8274647971545912,0.5628629730817024,0.8527262849954824,0.4702434352915105,0.670383610799057,0.48469846496517754,0.629137365113195,0.2865525291647552,0.6246647936287558,0.5375131533193654,0.9178432220661319,0.7468348962520772,0.7944545933883329,0.3696321829931965,0.7595249524493637,0.4940482335811121
28,3.128360722321753,0.6033890542706664,0.7334759820617249,0.28525927643805,0.6113125563476534,0.04542596534118992,0.9028913365831639,0.5609347820064647,0.9843123847632885,0.5951910731317882,0.8127604954528534,0.5501498944746763,0.40601769231399165,0.015962351799435445,0.611329702151256,0.4619110468544715,0.9902687411598303,0.8416547729186457,0.6744174810277473,0.35938232443418044,0.6752164275773818,0.5591780561655993,0.5874254969342132,0.1153143182508251,0.48439793485055455,0.02442716855870595,0.984464346886148,0.9562252162932701,0.8588238585460461,0.37206333394753366,0.7175136776664739,0.20569786366630496,0.4837690295499118,0.06598691311429451,0.6003455151592809,0.17009110517566373,0.7414187575147312,0.16654864575103293,0.8675467760331982,0.600874503016625,0.9199854748106538,0.6544149468283582,0.8924988108834561,0.48871154343363776,0.8304849507445686,0.5332260064235688,0.7441217013190058,0.3922105049101964,0.57257326007326,0.869619711201525,0.5260983060451351,0.7473875946697344,0.4662209662353128,0.5638058883161091,0.3815384896047204,0.5735062347441502,0.2009759026671017,0.6093302978458242,0.4680217988428329,0.9288175777164774,0.826683354749059,0.7725908685543112,0.33966555455052533,0.723579739006876,0.4584577675278125
29,3.097667037608123,0.5657583390580871,0.7986530767671881,0.37536368267816445,0.6356870498839219,0.0406401591080855,0.9025937869373153,0.6407345434225508,0.9930706215971856,0.7841991068017133,0.9238521556946335,0.7040509037228724,0.4838752756746746,0.019803634393808854,0.7214207313566919,0.5454731186504223,0.9793772329613913,0.8015197734028345,0.73314863294543,0.36507419158651133,0.7152003451896749,0.6122329891431267,0.6255723021570883,0.12580277554475155,0.4625703238950756,0.019626897516208424,0.9796345286736222,0.9483854585971532,0.8754145226215333,0.4346174039310026,0.7304526457409806,0.19447895252392397,0.526028555832567,0.06527713229550332,0.8293274256310653,0.32509560006548993,0.6688276832950344,0.12601122848663415,0.8881153790019951,0.6031177987064092,0.92966949900801,0.6128222914386744,0.9495981505830422,0.6164992130943286,0.7871040406769994,0.43227322847140903,0.7790542711875056,0.4269590947082536,0.49725274725274726,0.8663364244704526,0.5790892969193319,0.8556567980640456,0.5705818389960706,0.6691479346681084,0.45227152324707903,0.6469558773595181,0.21248830635346705,0.6371342519964799,0.49391785908730157,0.9234077455334606,0.8195854287705358,0.728819035749729,0.27175654939627547,0.7610654382631135,0.48567011468143734
