epoch,train_loss,train_accuracy,train_1st degree av block_rocauc,train_1st degree av block_prauc,train_anterior myocardial infarction_rocauc,train_anterior myocardial infarction_prauc,train_atrial fibrillation_rocauc,train_atrial fibrillation_prauc,train_atrial flutter_rocauc,train_atrial flutter_prauc,train_bundle branch block_rocauc,train_bundle branch block_prauc,train_complete right bundle branch block_rocauc,train_complete right bundle branch block_prauc,train_early repolarization_rocauc,train_early repolarization_prauc,train_left atrial enlargement_rocauc,train_left atrial enlargement_prauc,train_left axis deviation_rocauc,train_left axis deviation_prauc,train_left bundle branch block_rocauc,train_left bundle branch block_prauc,train_low qrs voltages_rocauc,train_low qrs voltages_prauc,train_myocardial infarction_rocauc,train_myocardial infarction_prauc,train_nonspecific st t abnormality_rocauc,train_nonspecific st t abnormality_prauc,train_normal ecg_rocauc,train_normal ecg_prauc,train_premature ventricular contractions_rocauc,train_premature ventricular contractions_prauc,train_prolonged pr interval_rocauc,train_prolonged pr interval_prauc,train_prolonged qt interval_rocauc,train_prolonged qt interval_prauc,train_right axis deviation_rocauc,train_right axis deviation_prauc,train_s t changes_rocauc,train_s t changes_prauc,train_sinus arrhythmia_rocauc,train_sinus arrhythmia_prauc,train_sinus bradycardia_rocauc,train_sinus bradycardia_prauc,train_sinus tachycardia_rocauc,train_sinus tachycardia_prauc,train_st depression_rocauc,train_st depression_prauc,train_st interval abnormal_rocauc,train_st interval abnormal_prauc,train_t wave abnormal_rocauc,train_t wave abnormal_prauc,train_t wave inversion_rocauc,train_t wave inversion_prauc,train_mean_rocaucs,train_mean_praucs,valid_accuracy,valid_1st degree av block_rocauc,valid_1st degree av block_prauc,valid_atrial fibrillation_rocauc,valid_atrial fibrillation_prauc,valid_atrial flutter_rocauc,valid_atrial flutter_prauc,valid_complete right bundle branch block_rocauc,valid_complete right bundle branch block_prauc,valid_left axis deviation_rocauc,valid_left axis deviation_prauc,valid_myocardial infarction_rocauc,valid_myocardial infarction_prauc,valid_normal ecg_rocauc,valid_normal ecg_prauc,valid_premature ventricular contractions_rocauc,valid_premature ventricular contractions_prauc,valid_right axis deviation_rocauc,valid_right axis deviation_prauc,valid_s t changes_rocauc,valid_s t changes_prauc,valid_sinus arrhythmia_rocauc,valid_sinus arrhythmia_prauc,valid_sinus bradycardia_rocauc,valid_sinus bradycardia_prauc,valid_sinus tachycardia_rocauc,valid_sinus tachycardia_prauc,valid_st depression_rocauc,valid_st depression_prauc,valid_t wave abnormal_rocauc,valid_t wave abnormal_prauc,valid_t wave inversion_rocauc,valid_t wave inversion_prauc,valid_mean_rocaucs,valid_mean_praucs
0,4.587900389264689,0.5429150511103278,0.73231166190225,0.08711344049998497,0.7530347094660176,0.018199815394077105,0.8574702317070397,0.09846306709632276,0.9545753589760119,0.7180697596513701,0.9155884244696864,0.4049035225777773,0.9649687101064747,0.5066922062580639,0.36923646401741256,0.004245351667255555,0.8671000604509429,0.04345828687558127,0.8182396730913171,0.4698742205365175,0.9479629710178666,0.16818441429602363,0.46766804558945585,0.017436489552692582,0.7888128175811184,0.2596199746034578,0.4711195013228673,0.006757214070027,0.9381226110288822,0.7514430468727132,0.5134661248100669,0.02100514920300879,0.6821463251318577,0.02100782392905331,0.43769774746007717,0.0070675579564462975,0.5288091862761365,0.018767544920545227,0.5110250630327371,0.0947362593155408,0.7443307746968685,0.28415302148177707,0.9497923344578483,0.8733672346501967,0.8895885494298119,0.7621203357399342,0.5845636171985736,0.050324413793163714,0.3594541655446693,0.009498119014462675,0.5910766781972219,0.20662926962127573,0.5558927094926096,0.06640086723135023,0.6997713275559931,0.22959763103110076,0.5575821658295885,0.7155081771304369,0.07088156191035025,0.84496043841311,0.08719517086692022,0.9540489637996104,0.7181238422727629,0.9682902286295971,0.5024253036118538,0.8193459739583733,0.48194455982356094,0.7783437852180005,0.25719188293626255,0.9296187356802608,0.7301653465880752,0.5292721003405657,0.024242798623739608,0.4973543926318845,0.02095436938846318,0.504948070179043,0.09085248241718166,0.7519742823926159,0.3011866722964154,0.9467513671235068,0.868852869445526,0.8816515694623229,0.7416045543988523,0.6027873016237042,0.051875203594851066,0.5926757002330818,0.19874922246336285,0.5933687742821776,0.0729903495722939,0.7444312413186432,0.3262022618881545
1,4.0365229736496655,0.5565738456115615,0.7639335833463122,0.1335279039205238,0.7524822376811827,0.02359630562917519,0.8949012797763858,0.16945839418274922,0.9609528531429031,0.7528662339403926,0.9166611388183018,0.542215893562455,0.9819583724696649,0.6417293382652538,0.5052119510593474,0.0054494477218898826,0.8215690223385677,0.026054365648386094,0.8251170793271836,0.4337892455292825,0.947870540998189,0.18142441860932618,0.4681579467541098,0.015843022204211243,0.805421150337671,0.35939464771418905,0.44280310785922705,0.013506323657180356,0.9494638015924962,0.7949321875385551,0.639997991959826,0.05486305512512686,0.675404698358677,0.023256387269879997,0.4597185848706776,0.009454701087558982,0.5496053096035162,0.01851997710305804,0.6039102381373138,0.13032804241057247,0.7982553535984414,0.3881193241638626,0.9349372863405805,0.8717183758309356,0.9317917282719707,0.841282854836574,0.542225058500588,0.0628822256296934,0.37787400703233426,0.009784474571471158,0.6372258546011123,0.28250196624289914,0.5890877261282641,0.07992794278674874,0.7221745347271094,0.2640933482762289,0.5542338532029254,0.7452882926281342,0.11260207634035932,0.8836831909565266,0.1402760588436984,0.9600280795280055,0.7529717535559215,0.9795052063476869,0.6037300155792417,0.8245692261763512,0.44915127424937734,0.785946558323547,0.34412314606394506,0.9420900498144543,0.7608512422317734,0.6225738081482408,0.05564653922686132,0.5136018965684076,0.01817435600296427,0.5884702443133418,0.11968801987310004,0.7924664243911914,0.38793647480258947,0.932943785188542,0.866762606032898,0.9296597286860087,0.8273269002053194,0.5635698969295084,0.05671334357681543,0.6373149887545857,0.2673362207716126,0.6192206122849582,0.0868210446211677,0.7700582493149681,0.3656319419986028
2,3.8344003280199956,0.6490717894489484,0.7698896929630925,0.23853263705434438,0.797273687102441,0.0215845676012165,0.8770991026973529,0.2220139711025202,0.9659209610926349,0.8328308188716631,0.9243681345562229,0.5167646442882301,0.9893569412203688,0.711616457681595,0.49793618263320993,0.006198998483458782,0.8243659279396479,0.031231397626987425,0.8651974189263684,0.505590028946921,0.9623940768821723,0.3301291379903881,0.44442799909363084,0.015225402705770932,0.8683688974898285,0.43526651763660607,0.5932348247890984,0.013529324425427418,0.9622663082659179,0.8403284212680309,0.7759571834926842,0.12755649521037446,0.7141855089573907,0.06436105588321467,0.44639713355238986,0.009148002109550028,0.6285212001467254,0.037787767059046795,0.6125729766050346,0.1455819992046917,0.8195358429239475,0.5109616701208691,0.95555702556733,0.9123792480639706,0.9428501916927634,0.8417699324071977,0.6238190730255494,0.08463171058063942,0.3848420314021169,0.009900356592807238,0.6663530098607723,0.30459720512926614,0.6073093835395202,0.08436584525994603,0.7507692583237773,0.30207244666556665,0.6691338443915763,0.7426884653999052,0.18654250776253362,0.8721273043511731,0.1800442431366933,0.9621649194422505,0.8196216463229838,0.9888274600403284,0.7112947772399248,0.8693617045706805,0.5219018803766096,0.8522123249887472,0.3985625903815166,0.9547480619492629,0.8176128433352634,0.771886892065354,0.11415427927779291,0.5888110380985055,0.03266402440622834,0.593432834376131,0.13014693839635558,0.8164139757855889,0.5085684590976572,0.9524772905714701,0.9034487680570047,0.9352359639568274,0.82513487719631,0.6419244384525666,0.09007872501311544,0.6604001351356874,0.2802665071641889,0.64054249911885,0.09727637376147306,0.8027034567689582,0.41358246505785323
3,3.6860637386906037,0.6011338268123605,0.8153660270419995,0.2736246844968895,0.7789063816005839,0.023793401407596837,0.9100781000085826,0.42081863643246653,0.9754617792156328,0.8496246143811383,0.9129319455915829,0.41918114167435805,0.9882924714470825,0.6778622375185487,0.3927825635584157,0.009505770634790627,0.8017420079257903,0.03327372147873661,0.8423222079998343,0.5201992164304682,0.9744036234405593,0.5647189601297474,0.4497454833152711,0.01589267199166953,0.8567462426513939,0.5350441711403155,0.622778058236628,0.016402574672708933,0.9614765292849142,0.8304506963138776,0.7804012686477287,0.1177234621358652,0.8177915612297619,0.0916890646295291,0.5502600974595622,0.014730463498422317,0.6404559283062817,0.027052382283441097,0.6577168117331396,0.14359424126781065,0.832535766856645,0.5253338154487524,0.9677813501761904,0.9273182012350629,0.9563716176303189,0.8646136587648758,0.6230494659903576,0.09454547732591458,0.3630790153696377,0.0095803611292011,0.6975751943363924,0.3138657473845987,0.6935362001944253,0.1030167594557243,0.7639841422787966,0.323979082048558,0.5937968102916557,0.7893950324641863,0.2213173202734224,0.8951963765483628,0.33920040721459094,0.9710279006866748,0.8348939649352557,0.9867541320462679,0.6893437632205514,0.8476534978604836,0.5296472029206991,0.8323544068823375,0.4880257987871514,0.9522706207416767,0.801320571503782,0.7732188399971004,0.1120832060663535,0.6169785096631745,0.02510092495921306,0.6373825469812076,0.1304059991751756,0.8220447693550613,0.4949549947265487,0.9644073189587933,0.9175046188167716,0.9526047331418952,0.8549594540956551,0.6270391518799061,0.08533049263430655,0.6818062001670124,0.27603611748412793,0.7161099426389208,0.11304979155468392,0.8166402487508163,0.43207341427301804
4,3.5943822845870885,0.6846434026553871,0.8710082939586303,0.29077091350012757,0.7653871789447086,0.021741166283918235,0.891104779709901,0.42517474174719294,0.9684642006167726,0.8411683413362376,0.8839069375336347,0.34315392224754293,0.9872114907375318,0.7109822183462372,0.4542682680325289,0.00588574322182539,0.7641885720320709,0.02241739289642659,0.8315149750594819,0.4344944033125411,0.9612340686484726,0.33028253125880613,0.5025191074648839,0.01705746648634546,0.8285216803065014,0.3633107736576047,0.5966108878653023,0.01463496603088664,0.9709234271907876,0.871120012066608,0.7679636516446249,0.17212706336349498,0.8189242698186243,0.09393870420343715,0.5159061168450364,0.011909194421537029,0.7019823427338414,0.06904323114700989,0.5862056569378549,0.1312703099845788,0.8544225716030254,0.5777040803488487,0.9419893102763254,0.8949717474184176,0.9629177032776783,0.9013968699776607,0.5286337027369002,0.07565856848196102,0.4638023800153282,0.011392270669736915,0.7218656105557357,0.33055074214149927,0.6800775990107374,0.10020882384606271,0.7623674916752663,0.31009100763063635,0.6713366816459599,0.8478902042342981,0.22693012923742112,0.8685843230746655,0.32359354401179885,0.9639734474917536,0.8247840300916178,0.985894802223349,0.6909093760319567,0.8323781164601148,0.44274851714554553,0.808930650363306,0.3152215788086035,0.9593516923525549,0.8271719424893386,0.7433993888709489,0.1442745006944373,0.6748814644745291,0.048347113145483366,0.5666743678022862,0.11618389603128784,0.8320294840433168,0.5341925302230471,0.9390926376131603,0.8870857986477105,0.9575737795821367,0.8828825100954748,0.5525375702753352,0.07162301247821129,0.7064394470879758,0.29588319549720277,0.7011153041997493,0.11291555511134055,0.8087966675093425,0.42154670185877985
5,3.5098818658928015,0.6629655739631065,0.8519083946408429,0.3008194380199925,0.8210687020221872,0.028490268648728872,0.8436759444768983,0.2254095013012729,0.9806753920729621,0.9067599732153565,0.922604109409669,0.43050329403796544,0.9928325236550273,0.7843445475045386,0.555721892855258,0.01148094382102215,0.7798982497507724,0.028521531344637332,0.871036925166837,0.6017734646669626,0.9786860356695639,0.6620020559505079,0.5327114774705601,0.023581048357235613,0.8745321569175454,0.5711662608831072,0.7084236115351139,0.02198764044059557,0.9714440528708135,0.8716210544676081,0.9002589947590623,0.387479543641782,0.8139528502734069,0.07518538449074137,0.6047663468372423,0.017497500238394068,0.6358483434024016,0.04232224326107346,0.7070471102292435,0.20211379827152748,0.8933638878942356,0.6854366041849301,0.9648489932341339,0.936257295196451,0.9714052688763345,0.918090541289907,0.6662336439637134,0.1344640578861424,0.4538177470638193,0.01165770673785857,0.7542026921898575,0.40556458960353137,0.7396082141345588,0.17228488287628324,0.7996374446681561,0.3637236603976213,0.6656093047845625,0.8006295400356892,0.1986702027200975,0.8152880454001986,0.14563868437261782,0.9773999244078122,0.8895978138190525,0.9888707326398958,0.7425362173821092,0.863377527040578,0.5824158146474239,0.8461872760008257,0.48933742621541154,0.956881111631195,0.8165638820210581,0.8787641807787978,0.3314486873885474,0.5845525558810335,0.03006500814545935,0.673109807460415,0.16373917504506857,0.8648305526076516,0.5906746149029466,0.9618523308821569,0.9242928850745463,0.9650042182394295,0.8934932629463183,0.676289015915971,0.10793255913072607,0.743551221465868,0.3578815786836459,0.7560552817829189,0.18476143753425325,0.8345402076356523,0.46556557812683014
6,3.426756200464334,0.6489249206908706,0.8399762049453843,0.31547598224902357,0.7760344181900584,0.02241368831012961,0.9322270313646727,0.5206693169958126,0.9695192186049346,0.7998045572641233,0.8907716168848548,0.41739478772106486,0.9884072285243178,0.6977755872834358,0.6378695124678001,0.011403895721457481,0.79963749319485,0.029532054255547217,0.8696662329380853,0.5668196639408626,0.9792526002930804,0.6969200164846365,0.49689553334065806,0.017989579570995635,0.8565461697994666,0.4601226732722316,0.5191413694123722,0.00875384108698423,0.9689854816664443,0.8715900849499063,0.7873691916200619,0.13899822705407028,0.8159609395206991,0.13240854143549213,0.45424367336883564,0.007969702092759377,0.7286782345051842,0.07997997385745302,0.576171949194706,0.11631928713004132,0.8568228167091262,0.5662097410069392,0.9361614546067563,0.8524136666012041,0.9407157371403555,0.8330617489232839,0.5509579502269868,0.06215406068226891,0.5128627180127182,0.016511606905386916,0.6587133147347962,0.26779287181390327,0.6073822205779902,0.0722658112376793,0.767345011994046,0.3301058064556421,0.6481628337298441,0.8031747970915979,0.21394767778309678,0.9093854422020733,0.3777139660096679,0.9654059443090451,0.7885229885202995,0.9835675433797375,0.6777203051476471,0.8660570129442655,0.5539185453718228,0.8301860356503463,0.3978309707322595,0.9505646302236987,0.8045263577636669,0.7616494187098045,0.11413898680995406,0.6857858531478989,0.06625448293734575,0.5564591851006633,0.10325527982796318,0.832914863910056,0.49182912729176775,0.930275153223608,0.8321532796527288,0.9272539459352412,0.8095409012653451,0.5498660018084841,0.05917690711181832,0.6430115301255863,0.2396072446257192,0.633866990361634,0.08171414939097242,0.8018390217577338,0.41324069814012965
7,3.3624856247351183,0.6759193984255669,0.8895490789936752,0.3740560617337895,0.8023425655947445,0.03234763358447039,0.9330601567777119,0.5799305981406788,0.9800729857098108,0.874415518729954,0.8659270381572624,0.3304114294165338,0.988394784620148,0.7015875135511982,0.7224964619328674,0.022986546493971673,0.7936461993679165,0.042075994967765144,0.8592373712662404,0.5781529200815614,0.9733260900462901,0.6428795843350988,0.533330508330502,0.020623667938074394,0.8780936618580082,0.5676660851203355,0.6143475794440771,0.022418370108311686,0.9706673532666442,0.8833844858737538,0.8536212718389099,0.2708839695863506,0.8534436568885411,0.147324931243486,0.5396343635514629,0.010391656354584437,0.6444541739460012,0.041253896662414614,0.645915050683948,0.16110032287036874,0.911056877912668,0.697760675777159,0.9751675478843647,0.9310865795553099,0.9653340901004619,0.8948746529858598,0.6200212996480007,0.10424174566362177,0.5871329774012469,0.02245855743722642,0.7114995820701708,0.3440740467891967,0.6778102339146967,0.11261898376743307,0.7995993446617836,0.3619617857218657,0.7126619085381972,0.8403763112763688,0.2600392636820467,0.9117243751819305,0.4068183766970349,0.9766488431503965,0.8525748513402941,0.9850855628693824,0.6799968379508002,0.8532889227401119,0.5587695133842948,0.8466656062487943,0.48472251822489043,0.9491836216706988,0.7893521218322134,0.8057197607912312,0.19028666162697802,0.5994257954415504,0.030544723894910142,0.6123640464762712,0.12545330685197126,0.8714737517699153,0.5618282767572894,0.9685212019163378,0.908699492691632,0.9548089909892068,0.8668093850215193,0.6164991825782693,0.09145296266754631,0.6819752560017546,0.2866737599989172,0.6907895166631463,0.11921215511160352,0.8227844216103354,0.4508271379833714
8,3.288718250240146,0.754171072729409,0.8734151744953565,0.33487499985979713,0.8399976913497557,0.03585954203522204,0.949393661261403,0.6296956491816785,0.9708961926062813,0.8352731646094154,0.7635961957131716,0.2617396947210873,0.9800586739186908,0.6683890541180976,0.5436330741764392,0.01648259277326662,0.7992922091637973,0.03255556836883121,0.861936255280281,0.5628012242469691,0.9560657219557976,0.6267480361876112,0.5269647366061245,0.02332409573140974,0.9195733157272078,0.6610026109456827,0.6448940544656023,0.018729518195095197,0.9818177569026418,0.9171738118485852,0.799812135114707,0.2235877061469076,0.8447934359666285,0.1564782713685957,0.5437983263461849,0.013013037321457048,0.7002461299560474,0.11576564174444405,0.6410985604125095,0.16393927432465005,0.9041642472625359,0.7087249297865273,0.9691481718255867,0.9344032016895347,0.943416788504785,0.857049322947486,0.563670952339199,0.09965610313892831,0.5228837295710173,0.02030105083404012,0.6872120816228349,0.3268344815612424,0.653863285496988,0.08907711603809994,0.7840631753092915,0.3589799884509485,0.7166270155960878,0.8279927903683212,0.21487207566308572,0.9327540229166116,0.45929091559371554,0.9652545113608727,0.8006766991733472,0.9768746218865295,0.6433336098256298,0.8538989719604706,0.5324225660190584,0.8922080015297092,0.5696928771302092,0.9631331874776058,0.8434692784808807,0.7251376431624355,0.1737047567079976,0.6427260092013477,0.06820694775969977,0.6072691476768975,0.1282858129919315,0.8687867178241373,0.5477195865945703,0.9623456476927669,0.9165545763062815,0.9323142093276562,0.8320485748447357,0.5706079758410108,0.07959429056644055,0.6632420032230952,0.2660408981967767,0.6700667807521365,0.09521405258219001,0.8159132651376002,0.44819546990228437
9,3.2227683811066727,0.7358418517213019,0.7957997250645104,0.3001025499864213,0.7819791925690038,0.03013553079173494,0.9113525642589911,0.4811985832549926,0.9650810492934049,0.8264284655776246,0.6481535427632431,0.155695316371818,0.9548855207860396,0.5324556489051921,0.7391431284319471,0.07087777258687111,0.7793291469877047,0.032128380130229735,0.8866113573411087,0.591482328071327,0.928173795698872,0.5335595217507861,0.5493415248265732,0.03210910050189385,0.8612334310869553,0.5007403891875213,0.610540694339387,0.015788179415619386,0.9836892780933421,0.9252704010195913,0.8385538764013564,0.33658147134845917,0.7939817737062334,0.1028990056196544,0.4883787154634007,0.0094675977230558,0.7543644490316451,0.13772118233501554,0.5697238125423847,0.15232679635841656,0.9036836017885007,0.7079083169778901,0.9592975465257726,0.9279525515232226,0.9324217434300187,0.8370694107787318,0.5086423146038033,0.07977200002403335,0.5531093675559791,0.04154619625414961,0.6656686725271853,0.3200722710918037,0.5925069089331066,0.08639897614751971,0.7675248743865566,0.3372187670666759,0.7035862190501366,0.7248881673338606,0.17244769957056758,0.8913009615546538,0.36182365563015484,0.9605269251706678,0.8024290251996672,0.9463425330972774,0.46585628962869996,0.878986236671081,0.5535540522232547,0.8308113296624826,0.40673012325874225,0.9613267799494892,0.8310106564933397,0.7557530411834786,0.22624324034948137,0.6967399431733214,0.08814829270742036,0.5360158308218215,0.1137034311986765,0.8530149081051561,0.5329347380053155,0.9540047108681051,0.9160422022997431,0.9169001287256162,0.8033681706630185,0.5184585375522561,0.06600850787340967,0.6371264867309561,0.2626036967842789,0.6122844915414262,0.09256765285109983,0.7921550632588532,0.4184669646710544
10,3.1628259514098356,0.7168370344260369,0.8901359789043889,0.42463771029672726,0.8382186394555095,0.03164337832559479,0.9083168615639292,0.4385978320432671,0.9476004449407096,0.8262856632674926,0.7919439224364934,0.316137153417987,0.981003105543216,0.6717997150369076,0.6898451041780138,0.05358697504143431,0.8333610436979008,0.0724679357669832,0.8532100003631679,0.5624993490184927,0.9761625506335784,0.6704340765634708,0.5314451741804552,0.03684220056787846,0.9420371574012631,0.7392355604482024,0.7248788804923304,0.018201384006024078,0.9846788877550682,0.9341297570809634,0.9008304377409737,0.3979409223106657,0.8657676446470568,0.16504495867604435,0.5530781865345461,0.013285122752417637,0.6518724867995978,0.13514085023979125,0.6990857167961517,0.191173127264753,0.9107400925860711,0.7450529769756091,0.963745564410433,0.9314087610457931,0.9361126691411471,0.8217883830755055,0.6671383788639293,0.14294359487173328,0.5260725539594423,0.03733552124147083,0.6608816107173033,0.3181302982430205,0.598611314988765,0.07992947906070118,0.8010297849512094,0.37598741102457417,0.6831438893294564,0.8286366315526184,0.23758623710028443,0.8835426083944178,0.3227749437924513,0.9376068779733027,0.7995164526732139,0.9763392104295036,0.6191514981470434,0.8400942305778609,0.5077108922577346,0.9045013046524143,0.6018723310834226,0.9606910252828206,0.8206690930197094,0.8204034066819998,0.27704398954699244,0.6043609637663949,0.07555583253657674,0.6429061280626089,0.13758554429803155,0.8572323733331833,0.5436546704949635,0.9583796350840139,0.9134220823108663,0.922715991682345,0.7856704797496589,0.6661711695847039,0.1061865599643134,0.6267161346834188,0.24745442239179377,0.6129362159357347,0.08711313431515359,0.8152021192298338,0.44268551023013814
11,3.083584795097895,0.7533486076841734,0.880597414754793,0.4790465456391246,0.8373191181307003,0.03749188287075761,0.9324985312776034,0.5816791878072571,0.9824845374322495,0.9096177764342922,0.7341970686335734,0.23772467861579488,0.9845880122286549,0.7771054440683406,0.6218476215089196,0.037170994539624795,0.8272101713130228,0.059380641084182784,0.8592949868010012,0.5664681287230209,0.9564257165891898,0.6702288684090872,0.5720469860560736,0.040156298261590874,0.9174160951590727,0.5876371546828298,0.7041418574827021,0.03448411139244454,0.9870263433209555,0.9363275533116548,0.91142968453736,0.4494080220540663,0.836901605577767,0.13405368731619918,0.6079823450037596,0.020550012358998632,0.7256925636108101,0.1646844415225705,0.7110286010387336,0.24526240558419354,0.9335240108968955,0.820398664323555,0.9770447756263704,0.9535695679510852,0.9551454039367818,0.8898043381583101,0.6457631241418209,0.1547860886264619,0.5627553946496261,0.041468236341786625,0.7418791611076375,0.44144218519304235,0.645949351997636,0.14912347541376153,0.8096996339543735,0.4007334765647705,0.7066701912062737,0.8067842448819835,0.31076497991787266,0.9093502589726257,0.41206180906047496,0.976285207833381,0.8733786387314754,0.9750262835821809,0.6781024282745245,0.8356950557652121,0.49782535646787274,0.8770619769122211,0.4445239915685152,0.9584799955546003,0.7977780359224234,0.7982194074845369,0.2751869585338952,0.6393241055955806,0.07344556045786817,0.6365809407462311,0.15979721784221507,0.8649784795196527,0.555834296222708,0.9685228788409097,0.9359989278034007,0.943093217150213,0.8553068475239802,0.6220938732685075,0.10935093781959876,0.6815303776034394,0.3318253921252236,0.6424639972823559,0.13737628331342205,0.8209681438121019,0.4655348538490919
12,3.0174218818060368,0.731259546469275,0.9135553190445509,0.3873317541205692,0.8371317439659252,0.035032931212109056,0.9202167583591014,0.5777847701676944,0.9510435323316904,0.8152776437214666,0.7486761762445933,0.24981960560923222,0.9811815996905899,0.7098407906006857,0.6740988494868682,0.02302695024118432,0.8574276886528984,0.06703303022218397,0.8570306296850002,0.5919692074989398,0.9524834652113929,0.5955037642091054,0.552065098214945,0.03747614124783896,0.928009197300461,0.7441176001161656,0.6778910995139226,0.019298086394919766,0.9879122794848935,0.9472241392153532,0.8433014301629789,0.2597959731120123,0.9141563086248595,0.21052104924520648,0.5484269903072628,0.015059886819719835,0.718021914050173,0.13631627859607967,0.679127510551671,0.18255772565559858,0.9104926272874533,0.6650258001451143,0.9675237609986527,0.9347237992422053,0.95062572316231,0.8791491816348367,0.6197273210700253,0.11586032704081602,0.5287354744495308,0.038740678045255196,0.6520996101759555,0.32708611764767803,0.564697446493146,0.0736315973783193,0.7975253674815712,0.3707386472746265,0.6836725702705084,0.8552055022945527,0.22859655568379814,0.8904475427070278,0.3996365216894525,0.9482399566594323,0.787038168697369,0.9670056863813477,0.6199123895506581,0.8337807818611879,0.5074119291467402,0.8743878625021574,0.576224641517894,0.956568922886084,0.8184594579302213,0.7049676751833716,0.18573270952086932,0.6526332919888458,0.09224794531616892,0.6052052993032035,0.1199199787519369,0.8433411777290475,0.4205902674524237,0.9588533447765519,0.9091666449842954,0.9387461728884048,0.8437771348853377,0.6089052691758292,0.09144382679947409,0.6085467873261252,0.2408204257938772,0.5872837838216185,0.08379691066072961,0.8021324410927992,0.43279846927382787
13,2.9550011821617295,0.7786981553283986,0.8226256858321419,0.4265099921582196,0.8180249685161269,0.05117112646356148,0.8834277316369029,0.5080450624521892,0.9460619804723052,0.8328225793753252,0.686812592270701,0.2158423834308092,0.9724545986432686,0.6345839462464117,0.6843367890035977,0.04557553512379282,0.8374995912491073,0.07332556265300355,0.8440308043355357,0.5325721777350243,0.9500973616628153,0.6155769667232175,0.5918103252500191,0.08941644241720476,0.8912795931770945,0.5579390943079965,0.63738240456321,0.0446658724292672,0.989269273759813,0.9478489095600109,0.8073040104474652,0.24383290127226534,0.7967082918245992,0.19502991656934401,0.5365154150743865,0.015867234028441025,0.742355427943535,0.19471028252580075,0.690986982842141,0.24306550056920817,0.9151903663696546,0.7766229578630723,0.9637720775139478,0.9303807473621138,0.9555089442785087,0.8815241524611779,0.6082298389360558,0.12597275145996906,0.5953149921287569,0.07063907621761575,0.6727922534341173,0.36596003994407755,0.5740133384340431,0.09400544305724148,0.7851463707538404,0.37359640978486003,0.7011190413252268,0.7320254247788534,0.230767585773954,0.853179782092518,0.3480243358503582,0.9404000472549295,0.8008499257251838,0.957812693926642,0.5652442019481069,0.821192770807658,0.45922709182384214,0.8475474311377043,0.40415359593996736,0.9556755948041559,0.7890675711706054,0.6510245161895013,0.14017235752581717,0.6655802742810898,0.10861920952692189,0.5854964338375321,0.12997815142173752,0.8322650974121939,0.49868923018738054,0.9545359949709461,0.9100437942599087,0.9381698782057628,0.8488665883712287,0.5747390065786887,0.08091372918318471,0.6168793941235047,0.26226314174252946,0.5782619894734844,0.09379588912634687,0.7815491456171978,0.4169172749735671
14,2.889483514004092,0.7742920925860651,0.852180224591744,0.44520389735079413,0.8180272871930824,0.0354306038115993,0.8554771849600834,0.47690279164748195,0.9541008932745619,0.8443178010468425,0.8358531838248202,0.3518296751900539,0.986301128094545,0.7570683672921354,0.665367427555071,0.055950771705884014,0.829060597651251,0.05984755864559227,0.8889587349892082,0.6521418746355327,0.9799070768160086,0.6347321373350522,0.5669130086051786,0.09470295020497937,0.9103947413924387,0.7174502704666608,0.6723360467674195,0.040522040571969606,0.9879556026885637,0.9379394372282335,0.9295241534001281,0.49909803897418653,0.8360491950085053,0.21119759664812032,0.5556660709564669,0.021890893013839334,0.7415628090667162,0.17946324847793013,0.7048549683669856,0.22412117250794128,0.9235341541953888,0.7839959350641881,0.9466101153163731,0.9085604922134503,0.9372813060422726,0.8210887924203221,0.64169030765988,0.159178153518915,0.6138678226691799,0.06949647664579353,0.687986849273805,0.37695640613733683,0.6449168461171101,0.11840259497332843,0.8063991437106457,0.40298038375877554,0.6916908978764649,0.7581397853322325,0.2335726171017221,0.8155619934517093,0.3305656458549367,0.9513286000779471,0.8241271320338533,0.9810365832957192,0.6566908594475362,0.8655178088902836,0.5276637984593333,0.8444520121429128,0.5182360312551192,0.9524817332840225,0.7708981463962501,0.8040473203975488,0.3111286976339913,0.6671315722340977,0.0950678136415947,0.6017645807289733,0.12962598844697595,0.8470917794298551,0.5053882513946593,0.9378642258671206,0.8899452430335505,0.9209340330725816,0.7758511340498685,0.6095474120984967,0.08724866645352698,0.616455835014583,0.24393320580294028,0.6369160961615455,0.10693317167753458,0.8006419607174768,0.43792977516771203
15,2.8052966229966882,0.7598402067912113,0.849626659399491,0.40498315232845533,0.8426365337258457,0.04774293450157741,0.8962731553070805,0.3833257745299995,0.9186233170471216,0.7716575143701115,0.708581867674102,0.274168660272852,0.9513352901018546,0.5838576027423774,0.7523002397815021,0.05977618293646436,0.8439417814998904,0.08593823341004905,0.8881398560628713,0.5709835701583562,0.9576366493987685,0.6834526567739021,0.6066448633963115,0.0950737753104082,0.9435601459587246,0.720402802061207,0.6806627550802155,0.03798628306284829,0.9932487531433635,0.967724226657022,0.8653137692398883,0.30558759198657826,0.8498670566757058,0.18550717550650575,0.5334382049380427,0.01819007362444059,0.7817230550756888,0.1907208031530907,0.6457315937518362,0.2231684823263535,0.9235674130931851,0.7995481760300165,0.9627492338114579,0.9296016273744335,0.9083855845266114,0.7810237597821732,0.6028552283579816,0.14360024035476515,0.63679272091265,0.0760400992530266,0.655395019461104,0.3723997931801336,0.6193607165708014,0.09943907193858835,0.8007073639996961,0.37738077937022063,0.6875495638382236,0.7547830683664382,0.2005073414878873,0.8664841549168714,0.24853209044961658,0.9135230865580264,0.7487544364758913,0.9296888435724745,0.48766643472947535,0.8545324831403048,0.449116598443397,0.8879722384857233,0.5075964433230185,0.955865735255155,0.7925129149407868,0.7275049810752093,0.18009628260490107,0.693976240114709,0.08014662113846469,0.528356345208952,0.11597951668759536,0.8485414209428475,0.5268455737701303,0.9539332050844352,0.9085505542238347,0.8938793147836419,0.75748446299428,0.5665297744636796,0.07766438498585868,0.5877234949467154,0.23771525439051427,0.6142768394571059,0.0972977283050352,0.786098201648268,0.401029164934418
16,2.7464926149545104,0.7692104335565738,0.91155828751735,0.4878008861917857,0.8300248110967617,0.049824695832525384,0.8779966211499678,0.4459277807507553,0.9645610291276131,0.8589120797737178,0.7636293897830972,0.28575982616186024,0.9698940377279142,0.6591638968906968,0.738157453138527,0.06132551602206796,0.8142612192177436,0.07468193805630424,0.895633920092621,0.7002141036705085,0.9728389371298204,0.720748019009639,0.6019606703782467,0.10734036694366719,0.8775144311554881,0.6598989974107696,0.6348124508835595,0.04590677781238414,0.9966840826494859,0.983959612577786,0.839308611970512,0.3175547596260992,0.8784093118853534,0.23943211655620789,0.6013224508925352,0.032283858633585426,0.7896129488380719,0.20432229226028675,0.7051675244229724,0.24587035321539413,0.9328266855431719,0.8308295548582323,0.9537185745615042,0.9200411142525947,0.9034174935578552,0.7619633063117325,0.6645944695170191,0.16426407572423982,0.5817310132154028,0.07858906242564082,0.6720287086836613,0.3903695939512975,0.5937996245196046,0.0995435353007028,0.8063640291790717,0.4010203123161723,0.6811172790554234,0.8214411852236132,0.23911898345153276,0.8376257875630592,0.2678298468339472,0.9614385646014266,0.8335891861080028,0.9473103922695937,0.5649716763410817,0.8473059699778777,0.5455957128603673,0.8059989474788565,0.43991062386036606,0.9558662967896147,0.7910333230002984,0.6671155309229396,0.1629374640461371,0.6965574116591454,0.09357627100572197,0.5942940017668822,0.12474147771504993,0.8400026179263209,0.5063378585057683,0.943715703667649,0.8987520005799561,0.8934825230220815,0.7370363311557847,0.6155591066350401,0.0885296445668665,0.599202876537475,0.2391085841000614,0.5900634894661739,0.09067379212700226,0.7885612753442344,0.41398392351612157
17,2.6874071328680045,0.860504053577723,0.8654501859701611,0.46193430451886347,0.8303028016636319,0.05035752257976999,0.9074505519059526,0.5991735241204497,0.9481203706102456,0.8257740334102434,0.7240627778912925,0.2828201830134878,0.952598528481016,0.6421812420060029,0.822053341718556,0.11732860230955294,0.8239954007791453,0.07122544530016967,0.866894097848388,0.64708178372216,0.9603338906192185,0.6179753161713732,0.643603461964847,0.14919542145661135,0.9156778145161137,0.7031102707736329,0.688137466499906,0.056560591304422,0.9973168843837592,0.9858406909576591,0.8319610468488499,0.29265825984088567,0.8657981665463622,0.26138111630857414,0.6145456722598188,0.05965814604625425,0.7578577670905761,0.20882956322673196,0.7647506681219028,0.2999447089478319,0.9297183992840814,0.81930871526143,0.9715958808715388,0.946054252783721,0.8985984405737523,0.7800309685521645,0.6895424797580801,0.21413986792484255,0.69869435108851,0.12149585626216079,0.729932453112806,0.44833075717453585,0.6231152580037626,0.11619967040717653,0.8200810830158566,0.4145611851684887,0.7367168913560667,0.7562007348590207,0.2064299431412001,0.8615311380601951,0.4197761784028721,0.9460921599336024,0.7942544651848852,0.9310860893758671,0.5662329225121355,0.817143764783331,0.4885195723646407,0.8366382271618141,0.47385100296531,0.9556920257907408,0.7822936061049701,0.635807432108366,0.1498624251850335,0.6569128862850658,0.09980319808221272,0.6120615982855869,0.1394367155962788,0.8398686251382856,0.511776207047077,0.9626029696184266,0.9279447763233375,0.8847305277750271,0.7473012084111212,0.6261842581611123,0.10368974504127756,0.6395973106363502,0.2641628955907869,0.6102009955362323,0.10206140464305125,0.785771921469314,0.4235872666622619
18,2.6328894991723986,0.8072494418987193,0.8312269872317781,0.3964294145748055,0.8194582868762383,0.06655826668930301,0.8842479419210971,0.4851132293650253,0.8948484406533128,0.7525195940480824,0.646606479669509,0.1908349840170162,0.9507017132736911,0.5871299300711987,0.7440734159771717,0.06571039524605557,0.8055396903745131,0.08475582067464782,0.8629389940536694,0.6352381764479471,0.9534653522969816,0.6702024428257483,0.6395768433333782,0.13525017925972602,0.9188573162075693,0.6939596933256345,0.6473310423011633,0.0393240969255985,0.9972449079769002,0.986191652957259,0.8671877515205837,0.3418251141775522,0.8314004265514092,0.21536722411628678,0.5642216797310893,0.06058074619952397,0.7383776935570975,0.19420934363270526,0.6860280977555027,0.2784159129742055,0.9235845161037015,0.7984626529779271,0.9404387577240632,0.8978790168929123,0.9103476348799056,0.8066791259140819,0.5745866051563784,0.14293184468796233,0.6153878593843859,0.07414961992836713,0.6737085583017606,0.42354020543942206,0.5029040053562535,0.07638709721726158,0.7855496537757348,0.388447914637933,0.7192704203013481,0.7447512758129942,0.17699633758911218,0.8367113243087848,0.27218215245642574,0.8983294231143851,0.7309977448263544,0.9364349166188488,0.5196214797964167,0.8152520342628811,0.4988059714930776,0.8469464618706447,0.46678608971355257,0.9525244343175095,0.7690406582445175,0.6748192644044787,0.15931945739605788,0.6265713104443212,0.07843401145056172,0.5382004312899347,0.1258299197061003,0.8359566550220553,0.48521945877830885,0.9314539452015449,0.8731132704441831,0.8978998316665017,0.7721392873917359,0.522754301702334,0.06184949080870755,0.5738182098063281,0.2334492418824784,0.49181549262431523,0.06925264358826022,0.7577649570292413,0.3933148259728656
19,2.5783659277868782,0.8634414287392785,0.8694548647473341,0.5526346643717025,0.8529765169411312,0.07249830161846284,0.866015681091272,0.5262371667018793,0.93524221367569,0.8392208006185461,0.7374173610651455,0.2580584049420156,0.986652668387345,0.7777394070564465,0.7547276765126881,0.05435585368879336,0.8344420240990689,0.11096784373935432,0.8414834505451987,0.6297530941165411,0.9724889359658301,0.6825618937552169,0.6919446566720773,0.20626482922053826,0.9264674826166828,0.7446486921555482,0.6881650751596573,0.07935042284213631,0.9981465773042765,0.9891830910256632,0.902586365171533,0.40244665923981177,0.884754720353324,0.2932777578006811,0.6658020714234212,0.05235941030994058,0.7971650296297379,0.20094013916695977,0.7532624020899497,0.350006835968709,0.9358292853729748,0.8366616099249667,0.9565288673675747,0.9235728855095672,0.9361467611088727,0.851155813828956,0.7043939625644898,0.2274931563930067,0.6530218517617085,0.08529541939634294,0.7042054040459387,0.44425968741071287,0.5854271758928355,0.11791216702005122,0.8244134262140677,0.43495600030086734,0.7313419684553705,0.7437917382206591,0.2722525095303755,0.8398609751227504,0.3982996418643987,0.9396690480342695,0.8262265597095882,0.9732352710367447,0.658692772550005,0.7811184427076556,0.4715182540591002,0.8541929937965556,0.4978491745931513,0.9541940959973921,0.7588248498693815,0.70213133636335,0.24566094629687052,0.6934275459847465,0.08674501599955692,0.5899354191129872,0.13625082477788142,0.8465655903142355,0.48287527426879406,0.9496873610624994,0.9090191080521424,0.9236226161006041,0.8261700141621579,0.634685792260212,0.11028416735582111,0.5983377424984028,0.2521520820125286,0.5632738838325376,0.09449678367437578,0.7867331157778501,0.43920737367350804
20,2.5331477481040645,0.8635295499941252,0.8747666117219927,0.48001383045912055,0.835052141404702,0.0719829564571112,0.8689043206418121,0.5219915751925892,0.922418315764444,0.8410767963992694,0.7224134795802961,0.2238850178021811,0.9833534251800701,0.7186665200436738,0.8067134116375544,0.08434863300535188,0.8266413999695978,0.12898724436105583,0.848304520317351,0.6299380728207612,0.9481212583837932,0.5684303023109821,0.6886908623930125,0.16565389260400876,0.9092121694917743,0.7381802771866952,0.7088760762141177,0.07929941053327123,0.998403335279004,0.9932737151157828,0.8833383102247663,0.4179619485802414,0.8930526493323254,0.3187671359512138,0.675704680531092,0.05965854334424485,0.7511968201914911,0.1798520247766143,0.7779621480360085,0.39666262601960994,0.9152459022321784,0.7831744213490697,0.9547310659404783,0.9267189471414143,0.9146634839815364,0.8183834511475152,0.6706198813956731,0.2176011045107903,0.6854789159434099,0.08533531840830177,0.7080716763427157,0.44730744001774736,0.5701804724145447,0.1063840644087853,0.8208506667132979,0.4232128949979771,0.7386553881399243,0.7622405094219673,0.2033520405036554,0.8238685434263294,0.36110328993237606,0.9282501533626554,0.8260359143212962,0.9695422120730274,0.6301909739103095,0.7895151450201704,0.45818298551278147,0.8248226620324149,0.502658394929387,0.9539212879080926,0.787233420666938,0.6898677497988166,0.18141509632276465,0.612336491348446,0.07843016607022887,0.5928258143382963,0.15278474337234532,0.8229362717914216,0.4715242616454148,0.9452132833065168,0.8972880248279017,0.9036186157045251,0.7791508724135952,0.5810789393502561,0.0834994244462131,0.5921989110134223,0.23942413303181082,0.5409880204034843,0.08066791193110634,0.7708265381437402,0.4208088533648827
21,2.506755626435538,0.8370050522852779,0.8897334758577202,0.4719441370599308,0.8239837176237498,0.08608971054166636,0.8481487955646327,0.475557518004801,0.9182880515997243,0.7923143931669103,0.6688867962605365,0.2683068203391723,0.9460853586874945,0.5914940108067547,0.8034586985881396,0.101747897491223,0.823351010520585,0.10936686816299857,0.8478075041828049,0.6546800735932037,0.9767028871860597,0.7579677391655851,0.6871579769494993,0.1651464073378777,0.8943923909474305,0.6842872291442474,0.6609757496957018,0.07584218067700826,0.9990662846884248,0.9959660456509112,0.8514711604657428,0.2518412124084346,0.8638263259877295,0.2377749807757869,0.6148581196845311,0.06822559574132142,0.7494107399057184,0.16809089397694857,0.6742097841608161,0.26788153237366286,0.9173693603566431,0.7968110318753019,0.9285147707052902,0.8832684810355299,0.9062271452921382,0.7964877766121539,0.5945130990221861,0.1562402252114197,0.6367422957619571,0.10550616824395319,0.7320145325387665,0.4651921537776905,0.5907666109731349,0.1199218030738517,0.8018447170464291,0.4056904956249364,0.7146885188122302,0.7893113678498599,0.216234429894277,0.80699773383917,0.32537759887875484,0.9201438135486896,0.7724322482871036,0.9254887577508045,0.4879785057500863,0.7844904965668225,0.47245329283379933,0.8081960430619904,0.44743783350975,0.9489088848326027,0.776825186294443,0.6625985139883823,0.1138469657457275,0.6217568768198172,0.06568252859461944,0.5060744476912792,0.10499796307051368,0.8217587679419439,0.49211629893042347,0.9243373568056908,0.8737687750606568,0.8935727497772056,0.7654393082817733,0.5322015427811342,0.06622251224059411,0.6202741333674806,0.25041544492821044,0.5611827662294151,0.09780928484093077,0.7579558908032681,0.395564886071354
22,2.468281467797655,0.8549524145223828,0.8710922959969665,0.500813866772547,0.7825128016034717,0.11974238404253712,0.7956694643359009,0.3681563816791646,0.8718444392747724,0.7554623034854673,0.6104644237991499,0.14615946340986866,0.95226270999885,0.5906841311777317,0.7763500554139152,0.09553246712114259,0.8172412341713978,0.10733488796069442,0.8527386097554501,0.6356034801143149,0.9649154177254894,0.6393560080851408,0.7133248701661686,0.22848056102501438,0.860274906343833,0.6091235718343275,0.726136566013321,0.07903018746862717,0.9994753551793926,0.997542207593288,0.8531164335698123,0.3483031070109308,0.8931845542827258,0.31132002825278426,0.6851990264344255,0.09315608876973425,0.7862348699642459,0.2393939829450744,0.7613163502749987,0.3609939786094003,0.9134914699341676,0.8109821081594674,0.9394909960149325,0.9006185505412684,0.8688441208147492,0.7241581645362876,0.6884304008589068,0.19922026462566786,0.6669643411976717,0.09962968941038391,0.7055298154128957,0.45102581286090976,0.48603983861663114,0.10880212657206204,0.8016209756597785,0.4046394540024553,0.7183011719094193,0.7600808622839917,0.22356110372105079,0.7541846993247225,0.23694874561597368,0.8775259375531078,0.7456034458046673,0.9372953595633001,0.5348035114402047,0.7912067790901506,0.45116110712330776,0.7708438952081521,0.36425443195002527,0.9523920098431619,0.7715032669101601,0.676487128286576,0.16664029030449995,0.6733481997554517,0.10861573352995577,0.586916073491552,0.13800730515617,0.8200286845905478,0.5016035706247414,0.9360490840122012,0.8866851962534976,0.8683291414991583,0.7071327196490218,0.6128385993421311,0.08724419275838091,0.5968487638217789,0.25154049187047056,0.47641986480840703,0.07435706415855421,0.7556746926546494,0.39060388605441765
23,2.4380455829746754,0.8562154858418517,0.7520735043201738,0.36898259930830324,0.7737242012721892,0.08972232060765546,0.8186473211980925,0.40854253346043595,0.8602069164164915,0.7267033045668156,0.628479927435299,0.18517981850680937,0.9421151765885608,0.5295509576205171,0.7429506575799313,0.03877224745954454,0.8125546842410402,0.11891959306318006,0.8406753775639101,0.5623249670858042,0.9621373098101103,0.66708626234218,0.692677288169827,0.17008999060877894,0.8495565774886378,0.5681382643703417,0.6489598897583042,0.06851431197337621,0.9991067068582923,0.9958797375155836,0.8123678776735864,0.26780059468819384,0.705383874242223,0.229680527873326,0.6010997569948738,0.08720501160386868,0.7615411001799094,0.15951905402200559,0.7610854462894634,0.40599429873828874,0.9093272508505049,0.7846147313782459,0.9205524923988195,0.8721664996743164,0.8615124245736394,0.7284001770987569,0.6356415333944254,0.1874131399526669,0.6826369505665223,0.08047023877216508,0.7203846579736981,0.4285015682507178,0.545344871478999,0.0878903488696947,0.7784901452045202,0.3776178115158296,0.7212089170852057,0.6195891575291784,0.16115141641109174,0.7731740204628068,0.2611898199057145,0.8659326169824432,0.718982935599319,0.928751595242296,0.4622947210514878,0.7918620298996455,0.3996077333759557,0.7628358506976759,0.35114730347274237,0.949894328980481,0.7870616465736056,0.6356752624537864,0.1241759873025758,0.6419910449599311,0.06569827174467187,0.5474831806407872,0.12839392812558764,0.815716565843662,0.4736439041992098,0.9176015592818636,0.8551090745161434,0.857481651648678,0.7143253219076486,0.5436403278860392,0.07714709863395985,0.6183952092219209,0.23654410878655224,0.529136902252851,0.07381114619260079,0.7374475814990029,0.3681427761124292
24,2.418371750904774,0.8322171307719421,0.8367319139681886,0.45917253549453846,0.7892043152959484,0.12379239507911502,0.859497873734861,0.5004515419151594,0.8378969827694364,0.7096919840942881,0.6381144635133229,0.23377128395835534,0.9317742618723723,0.5683539450653954,0.7370703436985802,0.0532990462555985,0.8342556557866753,0.13468235825443137,0.8202449345191928,0.5370884835217793,0.9683740770782129,0.7067074337272294,0.7250029751339697,0.18902690706355474,0.8481295931600709,0.5911985045073502,0.7046237079305907,0.05190039793199437,0.9992851643922452,0.996938487134658,0.788901453542977,0.2308317298826966,0.7638124810024777,0.22677400959305866,0.6868889463998161,0.11692865357985195,0.7125506198414325,0.1698593908048014,0.7552701695208157,0.35449729125661483,0.9074035809367605,0.7786412080321321,0.9333659161456506,0.8955846573807876,0.8555265900912271,0.716914488125934,0.6742867397976209,0.17887892944942918,0.6705899030594279,0.08982822387430352,0.6878969080536617,0.41284903172387666,0.47876941328101463,0.07696143104193352,0.7863641917125596,0.3886393980288026,0.6895761741122566,0.6941276704644804,0.18836627880199855,0.8197122613253913,0.348901743825337,0.8538187988011483,0.709204808678282,0.9013203847615889,0.48305029903417684,0.7643009254652205,0.3942938178525428,0.7637645906166556,0.36446338049233806,0.9498284585468915,0.7951506489357028,0.6056870295803741,0.11961557542678297,0.5771492536000493,0.06347989880549113,0.569766461004531,0.12342039843140917,0.8131839332513237,0.4745841406937445,0.9311147334592889,0.883409892455195,0.8567633231012971,0.7192465852038813,0.5995536533345565,0.07302877625320552,0.561189016955987,0.21625382430815604,0.47113109801717135,0.06592447554230367,0.7332757245178723,0.3763996590462842
25,2.393668750606739,0.8858536012219481,0.8958589531730204,0.5823432605391757,0.8571448087705649,0.16836047291661357,0.8173858882794873,0.4467175955899464,0.8538684564722769,0.7227192013944798,0.6810557009263762,0.28204593220894164,0.9759962703494633,0.7325748728383064,0.7913352599940935,0.07506642496708263,0.859672835785544,0.17165007473289728,0.8655288174133402,0.698945646348661,0.9519753298380951,0.6656498775573852,0.7854628737535837,0.34081067722666863,0.9169280679876093,0.7789540676974722,0.719233195180023,0.09487658741066315,0.9994695943196528,0.9966891511422658,0.8622256768474147,0.3900723500387623,0.8773529395106302,0.2887196060464023,0.7358247903855465,0.11273234350412108,0.7873376993073652,0.21302338672739984,0.7741808008414467,0.38409739128140963,0.9316857777610862,0.8595179236169579,0.9547372133838665,0.9177753938302281,0.8917843720657737,0.7725605898303911,0.6612150563351178,0.21861495510250784,0.6223029988400273,0.08468331741552533,0.7287565090941837,0.4757737338080248,0.5192197136844697,0.10815223367858932,0.81990536924231,0.44550488720964915,0.7309895144946691,0.7587824685287882,0.22046322231904997,0.7632893372562133,0.3051060105771873,0.8577544528155213,0.7087358868945783,0.9444847332599045,0.5941117934326727,0.7987566309697866,0.5051561393134198,0.8165156981328748,0.48909001898328575,0.9499387146173475,0.765617762893094,0.6628926921530767,0.185700981577115,0.6459917838826872,0.07550793325367969,0.5910401649616832,0.13967020589573212,0.8162300171994944,0.5164236934078736,0.9506371453412025,0.9063610417956162,0.8878744826220417,0.755864392376777,0.5842570963345434,0.07985141302683965,0.601981944673379,0.23930308736938988,0.4934524252080152,0.07559909686234416,0.757742486747285,0.410160167498666
26,2.3683231676973673,0.8638526612618964,0.7853574315323271,0.43528504189101574,0.7760571662909992,0.12531974514334704,0.8276218085064881,0.4602147822706937,0.8226979541735028,0.6604815454972733,0.583085278632336,0.13097960698836536,0.9221934420685727,0.4690181178387369,0.8400046865515816,0.06660414744311924,0.7985612631418935,0.08997542582626916,0.8431580897499102,0.5537592816843471,0.9241272829525655,0.47243132778846025,0.6828521905232658,0.17464001386818956,0.8568286230154016,0.586097404100047,0.68236928759376,0.07143235169580214,0.9995156921863358,0.9981446770021711,0.8520719227196784,0.2699632878760174,0.7707198700081747,0.24207600007303778,0.6457638051976144,0.10588347663041806,0.7594272973417009,0.20725036378436495,0.6931207910659479,0.3040349130142376,0.9073583225354762,0.7765470336898408,0.9158094140606527,0.8688337075072312,0.8476935877312566,0.6994292973083875,0.5750915999310438,0.16966640587323478,0.7101123788242848,0.09034744753537666,0.7160219858389343,0.41797164338397097,0.5377239544158867,0.09931439452961018,0.7798209664072921,0.367142363086291,0.7053484888536435,0.6540143961036029,0.17956978157223857,0.790154890408751,0.29511626204902575,0.8351377948249049,0.6506675146839099,0.9076935620946499,0.4252349710022968,0.7963668409409279,0.40552996870948493,0.7636459281645859,0.3489500485218956,0.9449348566314631,0.7756277547146319,0.6518515833631722,0.11304707744591386,0.619698009306908,0.08308942274313938,0.5016477598683846,0.1023556468717498,0.8098974504775606,0.456194303289675,0.9136673007448124,0.848768453943168,0.842091850678285,0.6777166304112185,0.505919243155936,0.06644399523485821,0.6078904529088911,0.2335386252468477,0.5215810989348739,0.0794859317861509,0.7291370636629819,0.35883352426413784
27,2.351746933368633,0.8825049935377747,0.7980915335124146,0.45268274347570514,0.7613178382210208,0.16241232524114818,0.8124094467693336,0.4073238196405937,0.880451296382506,0.7603136281881286,0.6395056017128895,0.247723726101633,0.943663016161384,0.6053864468062253,0.7236760381527636,0.06138394205947101,0.8177964173094735,0.13074051612616835,0.7848134447974063,0.6118886584344961,0.9440057102913896,0.65622044317283,0.7235337030027159,0.22550099602149187,0.8229896275256743,0.6387263849198093,0.6472553247584432,0.0568736659619004,0.9993929834014054,0.996321418013379,0.8292773200111339,0.2850689226517561,0.8550013435928869,0.3057287895935957,0.6909623509436942,0.12098832855574101,0.6690940095550416,0.1617542092727426,0.6884890722723733,0.2838020096453915,0.9135978451803551,0.8074667191660532,0.9165020196046466,0.8763016954101587,0.8704189003090204,0.7575102124608737,0.5763360469147365,0.1539534577147778,0.6530139546264266,0.08691909113797255,0.7000565652244879,0.49196527674867896,0.4882142710699362,0.10040292687292898,0.7749948338962909,0.4017446289766789,0.7308132875143184,0.6796108466395775,0.1801653768398969,0.7877897955403302,0.27771089110495795,0.892796135143342,0.74996048736932,0.9242710027944916,0.522182873475245,0.7182161255999449,0.43024612924389577,0.7358998548129998,0.40050343475768646,0.9500464315754636,0.7648025664688037,0.6280961931478272,0.1168092776471163,0.5433136287265018,0.07424289659969556,0.5028630840154057,0.1035057137201098,0.8175678338489429,0.5053804308931791,0.9170887213493137,0.8663602021279293,0.8712696306565005,0.7409884424215638,0.5242019899878124,0.057759164835542186,0.5811229952716133,0.237967085740999,0.4764522177139001,0.07160837456785143,0.721912905426498,0.381262084238362
28,2.356046987663998,0.8921689578192927,0.7549269196929078,0.39505035745918415,0.754336928577731,0.1443777323891019,0.7710050875315387,0.42494130532838315,0.8482454640270635,0.7360907762548203,0.5369545146812937,0.1242554913758433,0.880961734114499,0.45030096515148,0.7174190213721746,0.028599682843072852,0.7741975004772442,0.11643835074777809,0.8103868737389186,0.60978672517277,0.8975888400285239,0.420067166929707,0.7621490388604514,0.30641687682426294,0.8104012736489696,0.6141528098433527,0.676847301770775,0.08493215648575607,0.9995489716593393,0.9971661228439375,0.7815378146725044,0.2990830743293269,0.813119004570733,0.28038002569592735,0.6816582953932889,0.11175315259922522,0.7245419255100414,0.1776620311366926,0.7212390320204458,0.35340450409156166,0.917970439203588,0.8276313745655088,0.9232863208181211,0.885312066138795,0.8875808383757082,0.7775778668995827,0.5919635912633956,0.19140655304634924,0.6133340863661785,0.08409144730211042,0.7355001366913918,0.5040143093600373,0.478139649392763,0.09289251261391664,0.7640323309407535,0.3860686706703263,0.7377742532381708,0.6212957419632755,0.15409852742530392,0.7304754126361321,0.2830276063690188,0.8493418782944843,0.7262544794761191,0.8782192170414455,0.40154164232438017,0.7478577279025085,0.4279581656437648,0.7192508147732004,0.3999372103911273,0.9493555244590252,0.7449594542357391,0.5525621508579311,0.13167655431827938,0.576861601527107,0.06345412758435306,0.5333150336703263,0.11942590612688272,0.815507976230355,0.4884733351766522,0.9242370423178363,0.8702527205862739,0.8850656104564808,0.762223402256112,0.5199671434141035,0.06863974506209361,0.610739813398322,0.2573176561484668,0.4653683922690244,0.06988653027337902,0.7112138175757223,0.3730704414623716
29,2.341143342249963,0.8612677711197274,0.8186842175257782,0.43627901032626404,0.7682704850722322,0.16782676585787376,0.7776323580751013,0.44588504702891185,0.8165471347179623,0.6741589187979213,0.5719012782639726,0.1635382752206407,0.9477554216800552,0.5624226969028355,0.7635868466667048,0.03727808623854606,0.8324157796404053,0.15179020339251353,0.8623276466099241,0.6687520449405453,0.9107998236860999,0.539810396829135,0.7209067548608868,0.199819971274435,0.8015660051447722,0.5542274703939805,0.7096034215951509,0.10714946651208643,0.9996211705886776,0.9985054438570965,0.8523976400342875,0.27075463419396456,0.8207984402994797,0.26324752197396656,0.7207075174507037,0.10802827571535678,0.7538270643623304,0.1793029436697803,0.7144506962928865,0.31268896578308375,0.9045076616242713,0.7825767263435327,0.9081960855090383,0.8607262388432146,0.8497552749102062,0.7086175985667702,0.6047491136486173,0.16530196184003254,0.6382502925823892,0.08341333927757896,0.68865412463829,0.4372085794553245,0.5028491891546472,0.10139192725253852,0.7792600555628796,0.3838731734803049,0.6978588421887391,0.7002270813961164,0.16956388218845822,0.7430304127443882,0.2977926351469618,0.8223701984144479,0.6549348862135463,0.9245943645996185,0.47834309020613947,0.8097426073776954,0.49225517358738624,0.7133403670625184,0.3369536271882104,0.9463432094712017,0.7588778029799402,0.6560729576493279,0.10542597216233782,0.5975004178432252,0.05693185160040703,0.5326575891382578,0.10684484622235035,0.811213732571789,0.4632108769661553,0.9123112062419433,0.8507907365016462,0.8524287157144271,0.6920824056784128,0.5380733828482315,0.061602608493634914,0.5658857994461071,0.22374102011574937,0.49095899611422944,0.0788937573397594,0.7260469399145952,0.3642653232869435
