epoch,train_loss,train_accuracy,train_1st degree av block_rocauc,train_1st degree av block_prauc,train_abnormal QRS_rocauc,train_abnormal QRS_prauc,train_anterior myocardial infarction_rocauc,train_anterior myocardial infarction_prauc,train_atrial fibrillation_rocauc,train_atrial fibrillation_prauc,train_complete right bundle branch block_rocauc,train_complete right bundle branch block_prauc,train_incomplete right bundle branch block_rocauc,train_incomplete right bundle branch block_prauc,train_left anterior fascicular block_rocauc,train_left anterior fascicular block_prauc,train_left atrial enlargement_rocauc,train_left atrial enlargement_prauc,train_left axis deviation_rocauc,train_left axis deviation_prauc,train_left bundle branch block_rocauc,train_left bundle branch block_prauc,train_left ventricular hypertrophy_rocauc,train_left ventricular hypertrophy_prauc,train_myocardial infarction_rocauc,train_myocardial infarction_prauc,train_myocardial ischemia_rocauc,train_myocardial ischemia_prauc,train_nonspecific intraventricular conduction disorder_rocauc,train_nonspecific intraventricular conduction disorder_prauc,train_nonspecific st t abnormality_rocauc,train_nonspecific st t abnormality_prauc,train_premature atrial contraction_rocauc,train_premature atrial contraction_prauc,train_prolonged pr interval_rocauc,train_prolonged pr interval_prauc,train_qwave abnormal_rocauc,train_qwave abnormal_prauc,train_right axis deviation_rocauc,train_right axis deviation_prauc,train_s t changes_rocauc,train_s t changes_prauc,train_sinus arrhythmia_rocauc,train_sinus arrhythmia_prauc,train_sinus bradycardia_rocauc,train_sinus bradycardia_prauc,train_sinus rhythm_rocauc,train_sinus rhythm_prauc,train_sinus tachycardia_rocauc,train_sinus tachycardia_prauc,train_st depression_rocauc,train_st depression_prauc,train_t wave abnormal_rocauc,train_t wave abnormal_prauc,train_ventricular ectopics_rocauc,train_ventricular ectopics_prauc,train_mean_rocaucs,train_mean_praucs,valid_accuracy,valid_abnormal QRS_rocauc,valid_abnormal QRS_prauc,valid_atrial fibrillation_rocauc,valid_atrial fibrillation_prauc,valid_incomplete right bundle branch block_rocauc,valid_incomplete right bundle branch block_prauc,valid_left anterior fascicular block_rocauc,valid_left anterior fascicular block_prauc,valid_left axis deviation_rocauc,valid_left axis deviation_prauc,valid_left ventricular hypertrophy_rocauc,valid_left ventricular hypertrophy_prauc,valid_myocardial infarction_rocauc,valid_myocardial infarction_prauc,valid_myocardial ischemia_rocauc,valid_myocardial ischemia_prauc,valid_sinus rhythm_rocauc,valid_sinus rhythm_prauc,valid_t wave abnormal_rocauc,valid_t wave abnormal_prauc,valid_ventricular ectopics_rocauc,valid_ventricular ectopics_prauc,valid_mean_rocaucs,valid_mean_praucs
0,5.603981101688524,0.4413403556980383,0.6134816531454086,0.046435383703218584,0.5175019332357542,0.14564358207653016,0.5954546352929014,0.019478305271189725,0.7099003081060947,0.1308350705201559,0.60750522010667,0.09824691027786991,0.5189813809202957,0.05000095511091232,0.7971402226240584,0.20063952714128924,0.7152664083519111,0.03747526849020208,0.7567890771443603,0.49727797429168547,0.8731470480381373,0.11937042752588714,0.7002483346414253,0.19288696866002525,0.7779526186285841,0.523720617163214,0.8080600552745226,0.2541397991215868,0.6283163542672259,0.061048610082993185,0.65033421420799,0.025799230451941494,0.5978271760282472,0.02499702284465285,0.5852428494293266,0.02384828188425249,0.46636938831115327,0.02514622662723432,0.6576734188616359,0.028255649008278778,0.48496511402052656,0.03509945302886851,0.5213056922846077,0.03982160206327488,0.4774713466290339,0.02493330909182652,0.7287028947664834,0.9274396136181977,0.4287084433246994,0.035420536622892185,0.6842392924248105,0.09062555184529474,0.41353174714926066,0.08665222154583083,0.7018643852618301,0.09383965715243031,0.6302956004621095,0.14218806500821243,0.5057234432234432,0.5392380034398712,0.1616729073059809,0.707067916516176,0.12790982120682315,0.5443092131969935,0.055948626438552716,0.8001368299038704,0.23183959304865628,0.7714397245524209,0.5123067786242438,0.7083612734723862,0.19600853332492205,0.7878809163309592,0.535991196363765,0.798237439937818,0.26036788784808257,0.740934065934066,0.9334258758762204,0.4182867990941106,0.07845503293070297,0.7067272671780578,0.10706625142041432,0.6838744954142482,0.2909993185807604
1,5.167608803096195,0.42584535531638806,0.5748019206505893,0.044311381101129345,0.4125143208940315,0.12787898195101424,0.6810416847207209,0.029562576415234573,0.5993511339248713,0.09586618650995518,0.7187309823395337,0.19417908901730768,0.6198171901993488,0.08896353660495387,0.905781465445729,0.44730356909925506,0.6396883970647615,0.03126672318166607,0.5350568684286666,0.25152342805558164,0.8987213578500708,0.12292005700286703,0.5525902497472333,0.11000748202507679,0.755061982559068,0.42749768670343197,0.8121834705400688,0.2538461161039497,0.45662265947527436,0.03188794389918944,0.45142863757685603,0.01801733714713965,0.5141334566030518,0.02412059232831991,0.45154515121503025,0.014800111900834046,0.6045462851287049,0.034435621689306986,0.5171363829485909,0.018056141188643023,0.7155664721720629,0.07438834653637931,0.5137368975666311,0.03551113045893006,0.6235918929963603,0.04050804971403629,0.799495468927595,0.952555482051466,0.4000462170473831,0.03497763463467718,0.6483337906069504,0.07365979462030829,0.7327812706529183,0.20246433316738358,0.795326272576943,0.1351115703977323,0.6270234029577425,0.1450229964261396,0.4342948717948718,0.40094598404214876,0.1326982822718461,0.5949414422064198,0.09974134470382578,0.6230530759797114,0.08688444825083172,0.9013764333005058,0.425435994719785,0.5316559984974738,0.2517419188140796,0.5711613986157351,0.12078974673464321,0.7572944623306203,0.4508532321121635,0.8133001850445167,0.27239570953755077,0.8024457342108441,0.9549336786484204,0.7394875582232779,0.191360363023214,0.7795643681201294,0.1312685800210092,0.6832024218701257,0.2834639362579427
2,5.019559349816097,0.21082360125181285,0.3109944661990338,0.026128514990970894,0.3336256630421045,0.11025128325373162,0.6261037678621111,0.02744610391182285,0.47524453494102514,0.07900300337434712,0.6967137314973051,0.1436398217175035,0.5653261361135206,0.08242692585452716,0.930984258912003,0.45611470368858004,0.48222107014373194,0.022282711332539375,0.4500010286849279,0.2642033225151913,0.9061950861752842,0.1368081633751568,0.7066166161625103,0.3153277176924825,0.6476374117185797,0.3581959938236309,0.8081379645671342,0.3895328814704595,0.3942184138301413,0.03126512994827701,0.34255815261070743,0.012462320267396645,0.4168466157322436,0.015542337606438982,0.3615800016705546,0.012413186120542286,0.4718490292151424,0.027514712164813653,0.342699371838304,0.012011725350709938,0.6976558614987802,0.10103709583354843,0.5442506520668409,0.04037540737000058,0.5165377538467402,0.026793032547096245,0.8065221024175959,0.9557689102700291,0.30907635123608396,0.027429868300912538,0.536896517312853,0.07173737989496018,0.6459941652041729,0.16125792069428796,0.8438888142842478,0.169138139808705,0.5618657606956917,0.15096697456217265,0.37934981684981683,0.3238773921082604,0.11596339040279095,0.47614354931428104,0.07865173858911578,0.5757073022737081,0.07894976341745498,0.9222364571803744,0.4254127025916455,0.43736052345772336,0.26356469536812954,0.6971648411256068,0.30815052905254586,0.6236215953254222,0.3625037214518331,0.8150841091365177,0.4518073231471612,0.8109425944934187,0.9575885576777762,0.674191679522982,0.1619781495116395,0.8357712576556047,0.16813066966976276,0.6538273910539908,0.3066092037163505
3,4.801833706842598,0.277994046256011,0.24850059489177548,0.022402568015232154,0.3182032889697065,0.10329121138135099,0.5259527979603099,0.0180029397936098,0.4924216912962535,0.0663475274767803,0.8812403087511935,0.4884034181312784,0.7990600878192141,0.32339856656375154,0.9274197104130565,0.3965660509618966,0.3196599429658154,0.012785127496060363,0.5507799119186098,0.2726072114576761,0.84203824191943,0.09012087657179854,0.6952683334513566,0.2284204833561297,0.6312261571527149,0.391265007870395,0.7923588449254435,0.28834815375336065,0.36275415059091765,0.026936764316947134,0.3796694900959481,0.01390356400261893,0.4188283868214175,0.014905029669162738,0.36447159012940833,0.01167708970245335,0.409600280648374,0.02070840434721133,0.5133766295074892,0.02546633636298675,0.710916448901184,0.09391984402873749,0.5472504500636943,0.0406803910366325,0.5323660813537646,0.02857784700050694,0.8335085143202368,0.9619044788542022,0.3760036281454162,0.028742792049693034,0.6162014543934077,0.06715680714440006,0.6748818870273758,0.2454985598722014,0.827229610627938,0.17759250875461924,0.5774514264837576,0.1651714651841368,0.33951465201465203,0.3110568342970197,0.10862736478141646,0.4994295309237294,0.06832471083388675,0.770806715579238,0.2884132160612871,0.9159876010609401,0.39451739517102724,0.5552795188649862,0.2832046168919209,0.689109805814254,0.2041395133455403,0.5949253062362323,0.37332923230204196,0.7956651997067552,0.31840855233445936,0.8303405385822968,0.9615253129381428,0.6746923213031362,0.2294245569085937,0.828701650151586,0.18466162398976396,0.6787268202291067,0.31041600868709823
4,4.557035768881034,0.28974887413174566,0.2886951768005282,0.0238608055154251,0.2792246127752568,0.09851405424166843,0.5356970461286786,0.019328894995815832,0.4686225055831581,0.0638199862819647,0.9034284459581412,0.631234105607334,0.8350249553173874,0.4406430375957886,0.8847587548082084,0.2607671392744034,0.3329271311754749,0.013203943148643451,0.5980883853878194,0.33131286114922787,0.8582532348472942,0.09394042083900335,0.5472214784292666,0.18602911508533088,0.6211810668609961,0.3953478027087347,0.7473681820185485,0.23888864814611938,0.3773630939241082,0.028652956364750903,0.3971285029650969,0.013803433396543722,0.4651475690773444,0.01766482078966724,0.39624848605981783,0.013359422313566049,0.4012770756402233,0.020316855373770353,0.5850579118175776,0.027773405470205858,0.6416745676921558,0.06787618956683444,0.5540087541532838,0.04228830675454051,0.6052207045352046,0.03958794779745503,0.8400125129276359,0.9637973125641579,0.44216674645156295,0.03481456126619943,0.4476733286429875,0.04080984396325326,0.7408054630657663,0.35726986873765415,0.8172988035045134,0.19524298026337011,0.5782064628351126,0.1725981007115344,0.31684981684981683,0.27564589213808927,0.10488539771212044,0.48048684811649534,0.06965048863760707,0.7763499741478401,0.3684006620018182,0.8731469134834106,0.27070946283391534,0.6002294618786477,0.35006733383471855,0.5192466626660659,0.13757172155266262,0.58095022055568,0.3793472595361964,0.750330121184285,0.2739222476975212,0.8388121150827195,0.9643067745725689,0.7274597282213427,0.33184983392514905,0.8215862616232934,0.20781991030352495,0.6585676544634427,0.31441191750980024
5,4.4683502276938665,0.43118845889626745,0.37443607855186345,0.031398383208084565,0.29247374446134183,0.10040960195182255,0.5512168812628564,0.020494776467231544,0.6914514551946207,0.16199841570500098,0.928012934189753,0.6525460437945236,0.9120329276298204,0.5404994618724276,0.9405407692157548,0.4618052816458166,0.4614260183978396,0.016716010858227107,0.6199031906885907,0.3607530840357452,0.9413624600555294,0.21294175474196797,0.6731016129365388,0.19040087841190678,0.5744096879011243,0.3635661021857258,0.6810844051844243,0.1805439659621031,0.3878593362349305,0.029368457279351227,0.38992048976189925,0.013610682985148864,0.5324360494961318,0.025496612752348307,0.4530950754434428,0.016356241773650512,0.446066552163122,0.02414453270793289,0.6479956598919918,0.02395700403700003,0.6698253819695265,0.08121808423653773,0.5812902874084364,0.051077719671627865,0.7018480444987434,0.14959854255121752,0.8282298815265362,0.9609738264706968,0.5332326297867492,0.08570767406948752,0.49900819458896983,0.04493061026777025,0.6839137770806009,0.28633225015579256,0.8796666921799262,0.29719542419897815,0.6250311191741135,0.19940894162956016,0.44184981684981683,0.2865246501348537,0.1057677257040243,0.6972033062490083,0.19878688763707586,0.8662642133465515,0.484344447309388,0.929685843188863,0.46615817290876643,0.6197430540244486,0.3699854000410309,0.6525766503012196,0.16634792511559626,0.5294484194876112,0.3462372249514988,0.6827568541548898,0.19900110192849801,0.8254819013404178,0.9604693131247793,0.6758806058120606,0.25787024112754686,0.8797586831342706,0.3397517038897554,0.6950294710158359,0.3540654676125418
6,4.304692282693804,0.5046942981451797,0.3656936209297309,0.034476003898946804,0.3532117988311342,0.11224657433946467,0.5180989042899473,0.017266080994036807,0.7103117178952227,0.23176002263529946,0.9282094010900497,0.7009175809891938,0.8691780157211517,0.4519404132866638,0.8983222071262564,0.34272985301051817,0.496898679596263,0.019605455425636555,0.6365513529251191,0.4015304061047666,0.870017496987794,0.12162628134531521,0.6502547214255647,0.22927398527983,0.5896542399343732,0.3356824343564004,0.7507800613656734,0.23740520867353251,0.4039055421385057,0.03132463164257244,0.6093364996312234,0.029936099218565153,0.5486755445153542,0.030552564746766927,0.443380874535377,0.015212189513700153,0.5589015192022817,0.04581954512853719,0.6289767775747098,0.02396178138449488,0.7485295957104297,0.13884905049180604,0.5785175293271996,0.046753454093060566,0.7732080129922102,0.14718890550476188,0.8451061755700959,0.9651041099839799,0.6271607388479552,0.1725279391258912,0.5178382130835373,0.05129494657127845,0.7729827922056522,0.35381294384154494,0.836091496201427,0.29791707653000443,0.6492516122094162,0.20691539030061368,0.5936355311355311,0.33734638628325087,0.11450414831717112,0.7114494857805301,0.2833734114215056,0.8239670887049562,0.37997700316308103,0.8873724300816621,0.34430740599405524,0.6248578257932883,0.3952322615472712,0.6131548937242532,0.1776652029510598,0.5612820926279196,0.3406763776691081,0.743301520986433,0.25239870746068993,0.8414914412510566,0.9648650733784221,0.7552080651852169,0.32078647269406485,0.8356817303192463,0.2959668416049228,0.7031920873398012,0.35179571874557747
7,4.211469618985329,0.6175864437829174,0.46252892742974067,0.04221577489512511,0.3256229503963643,0.10826627477527705,0.6137625865264303,0.027301540228603132,0.8412488771238472,0.3154272379674003,0.944395086591371,0.6611814427411888,0.9142878884714284,0.5339901175793793,0.9287351274915894,0.3770845583921809,0.6477375306226452,0.029635636486622985,0.7286029803176552,0.4125184359962496,0.9729052333804808,0.6383590303615381,0.7918648167982626,0.39771900080450195,0.7284035278069217,0.511229285207434,0.7796540533536728,0.25417007333237074,0.41512935280764124,0.03324779626150569,0.5925930458308389,0.02886188588397705,0.6372877452246539,0.03746882838625216,0.49683396327166196,0.01889108889255956,0.49714120853624855,0.030417839272182157,0.7538097710877769,0.04508463194050398,0.7442623639890862,0.13677445950548658,0.6051951893856404,0.053057010873989334,0.749783816059439,0.07679883275192423,0.8297997317195548,0.9618859060951949,0.7099624536259863,0.24469320268189645,0.5714172963175168,0.0633915933282746,0.7879413021217494,0.3562514915641548,0.8967061885390161,0.34327984517208276,0.7025041857343415,0.24960010449547615,0.6483516483516484,0.31415825512520124,0.1124033025291179,0.8480742383181407,0.3954746417043671,0.8677127889139102,0.45956295942790276,0.9157733504152831,0.3725355999654876,0.720933467720768,0.4126403065135146,0.7647801555963207,0.33698189604834716,0.6957678999928941,0.5004578596022657,0.7743202153405878,0.2621208198245372,0.8262264521193093,0.9614728747710639,0.7725041734942726,0.32049656452601444,0.9003845606039026,0.357009134232206,0.7636941416036899,0.4082869053768023
8,4.10410270375356,0.4927868101671628,0.39337169622603274,0.031031928559983185,0.32264230178047953,0.10578760989544016,0.5104456956854231,0.01853868496097094,0.7930482958445697,0.26020575436148236,0.9468031795012181,0.7347741541705171,0.907249323439504,0.5042346538460418,0.9364834185647385,0.5210995102926635,0.5556884890350615,0.02732331256629089,0.6252610653074093,0.3629119911952218,0.9553709466184713,0.32936868641830547,0.6512193163891151,0.20241821339835633,0.6190314421761901,0.410894505972093,0.770043259193163,0.21862395118260294,0.39517735765754786,0.029499670809591573,0.49124775509259105,0.018780742868268138,0.5619165209832864,0.027783425614082105,0.3910574611148566,0.013095634823617325,0.49186766006395954,0.02791034962426465,0.7464450004458502,0.05180394802348843,0.7366859387282676,0.12263666071794263,0.5749556430484771,0.04768755966593311,0.754065464986036,0.15257661849558662,0.858701092577233,0.967705453054615,0.5907806638164622,0.14022822742987243,0.453052722682597,0.039399960812722554,0.7745918548934572,0.3770993141941684,0.8994663183724803,0.33237776586438234,0.6558025883046104,0.22502956625253723,0.5018315018315018,0.3104957399329572,0.11023749386072251,0.7970469554651415,0.29288250718525866,0.862924797989941,0.4111626091173158,0.9182528477179038,0.49018711216113797,0.619509450866344,0.3674184443226104,0.6128895513845851,0.15908866817537548,0.5775465025389868,0.40118686996768077,0.7645198116873941,0.23134386199353235,0.8515287253954837,0.9665967600521553,0.7469610866412084,0.32188795208004095,0.89844547988687,0.3179515030568321,0.7236473590460742,0.3699948892702421
9,4.029213549863127,0.5465231661705213,0.40984145480456824,0.03361972526930746,0.29199502228600654,0.10110211306497704,0.6711157557541121,0.03257960316814032,0.8408414784206313,0.3900789657036797,0.9237625814299736,0.6559371459092039,0.8767567214160114,0.4904663840127754,0.8896920481050883,0.36704847487177944,0.5703027901647213,0.027092447122156246,0.6929883829345519,0.4076563921107899,0.9344520928283304,0.36147427412906386,0.5758247434467537,0.2708070086735432,0.7647680316243131,0.5858148498962323,0.8316470351723889,0.4134183175485546,0.3861133533875214,0.03187422066874955,0.4247804703804519,0.01562997209563529,0.6191686255578204,0.03747928130759608,0.44840465756612113,0.017016778684593857,0.38075326841906065,0.01950003486463425,0.8156958372579389,0.06231911233402469,0.743064922192554,0.11593508876232725,0.5972787851920414,0.055849047042095486,0.776241257889867,0.11475176246092841,0.863472695808886,0.968972248543893,0.6837632988864724,0.2688849514544825,0.4226801877472437,0.04205617362048222,0.7699076606710913,0.4127060744642203,0.8709971872777137,0.37160767592248645,0.6694929758008235,0.24709918976690198,0.5631868131868132,0.2915093828312923,0.10687984371450635,0.8363268010438267,0.4295132043495777,0.8098157018754568,0.38918165646195385,0.8709789874587114,0.3596012107591032,0.6811402925493133,0.4118061503391952,0.5091908820470548,0.17258932122783915,0.7248539194411496,0.5436518455847981,0.8282663227812324,0.4135501818589111,0.8608727810650888,0.9697469818070987,0.7565661891632951,0.33942701227317784,0.8649836205668707,0.3432570077151472,0.7304095346202992,0.4072004014628462
10,3.9255178880622372,0.44836272040302266,0.3837031522726827,0.03647865585023491,0.33504506806303597,0.10703145157936741,0.46669768163138714,0.014586741066262444,0.86654068818201,0.4797984869241029,0.8957406982462992,0.35863823791332733,0.841521272583924,0.40326842124084766,0.8273492428858034,0.24519273311180098,0.39403509611841236,0.017155402937708772,0.5294783944363527,0.2666722288532913,0.9847361307559327,0.8676320085233042,0.6837402188152816,0.33467879582845417,0.48553754375995406,0.2704143508788803,0.6715725588310334,0.21714222300657982,0.39773385478615275,0.030860854481720445,0.3892882775317429,0.013759476896321392,0.5808645232396167,0.04114825157876414,0.4175614823786313,0.014721383657518848,0.42904898978674255,0.021648151430667038,0.6376474396584862,0.05507026774101386,0.7168192522200555,0.1172667869171481,0.5809858300432342,0.05769406772668448,0.760728207451888,0.15170725520187636,0.8781978926673426,0.9725655384506734,0.672474731464866,0.20907399817310232,0.39938990834867527,0.0358030256582605,0.7276355595394238,0.34826448901004736,0.87117175068015,0.45002206251080995,0.6231572387547821,0.2273442721166211,0.44803113553113555,0.32749448166227424,0.11274925418060246,0.8577319488993654,0.5080302066301982,0.7791680732235721,0.2794220211848173,0.8081320103537534,0.23453095464938403,0.5164315469836903,0.26475117838098894,0.6326983981224227,0.2294755429754301,0.4514061449490836,0.26337153286896603,0.6562174295152629,0.209877628030819,0.866880132230407,0.9705125911583198,0.7128635940517128,0.28111028445033637,0.877761613119824,0.4034637466108274,0.6806168521010335,0.3415722673746081
11,3.8598906334352243,0.49217616975803374,0.44791747020638173,0.06931075909761358,0.3813725769998627,0.13538283921374453,0.5789640621698008,0.02894070455484993,0.8293448401664308,0.42375457221122015,0.9290491974924701,0.7254025634236869,0.8655334509136637,0.5280463219938382,0.8582465567023534,0.3927391979936853,0.45652450536041966,0.018965056622495525,0.6238358499228519,0.43457521777043495,0.9757570328461419,0.751740683008141,0.6971228059951924,0.3531285040209918,0.6143933081088331,0.44988914617389403,0.6859594297293579,0.20727271913959322,0.39869790551248563,0.030747804902274686,0.4457679981213887,0.017432876922337002,0.5435202396342507,0.03242646415204186,0.4307707969142468,0.01757642895539993,0.4436927114185204,0.023585746755274053,0.6293726101118822,0.03289357880132716,0.7341888530965184,0.11355310361980088,0.5802150735363232,0.0592688998091018,0.7732033547682217,0.17984030959172823,0.8798765909951975,0.9731993013832488,0.6438897633068497,0.29041925576762245,0.37362738923270716,0.03535358006347207,0.7910527438459921,0.42098905835221806,0.8658503454831448,0.45567521605739814,0.6473239800959811,0.2667448114947198,0.6064560439560439,0.3708553004311342,0.13416053774751938,0.8163284913225712,0.43288500588387047,0.8002867239544832,0.391963189137967,0.8212633961124041,0.3488143954204364,0.6014488062032866,0.397622255561325,0.639698203787188,0.2528599090476199,0.5679286897298125,0.4067384844848054,0.6840061254592991,0.22313528712425082,0.869512287163386,0.9713650230025708,0.776842181259546,0.3533099432512096,0.8574836714346756,0.3926506411476223,0.7096048978961623,0.3914095156190179
12,3.7291807784951194,0.4778261201435005,0.40750323594976756,0.049029002658338885,0.3346509235362789,0.11815896779614934,0.6006215155675358,0.035005403386139264,0.8098285825971016,0.4464109719251415,0.8965228336054095,0.6579427268147218,0.7921195331527887,0.3924759747688477,0.9291486787273286,0.5048312246685402,0.4797580299205843,0.02145941823953573,0.6243979110362121,0.3854545497394237,0.9815424590078057,0.7866662146991733,0.6903084945827285,0.3984856019735871,0.669557867074426,0.44199165206777224,0.7149382803452187,0.2503657228846354,0.39438727097205706,0.03094130211705869,0.4869744105360988,0.018630124347252947,0.5881634395114148,0.05541535410351724,0.447984967990979,0.02778905255341759,0.4447746676250992,0.024540575227307675,0.6089069626812156,0.05363007428342291,0.7090226603783882,0.12044027480201805,0.5808673967263185,0.06894879767933564,0.7169668397973249,0.1146094335325144,0.8665081559303289,0.9701656489915831,0.6757489749708196,0.3238912076759821,0.4556994680178795,0.050150853604751,0.7562876246365235,0.40834583756784903,0.8189232686427068,0.4601210628388024,0.6474857205007533,0.2672554455906229,0.5879120879120879,0.32917016132145327,0.12257993054415778,0.8031088372078189,0.46868498598390956,0.7232141712566713,0.27732030543947483,0.8973935501114102,0.45774287763877086,0.6044433595458825,0.3503063197737367,0.6398113880447527,0.2760155928731469,0.6258211394556893,0.4168683339597465,0.7071146083592426,0.2552040939268918,0.8627898200700399,0.9694719323801816,0.7356877699604281,0.31755881024800264,0.7908834720328809,0.3651943542008899,0.7017671161242064,0.388813412451719
13,3.6303663356605718,0.6158308526066713,0.5895981375311338,0.10728793746372182,0.3598958793425322,0.11806764265111391,0.644790664191551,0.04339706111740125,0.8879215993147606,0.5560823515917546,0.9166386119481398,0.47559401126942624,0.8935631511849621,0.5910684812945156,0.9407154349241492,0.5827956381476802,0.5073025048048182,0.023298012395966773,0.6181384281512579,0.36606915421554254,0.976105610561056,0.5307414483961019,0.6507091113038825,0.34653531317889225,0.6994449146915297,0.5185245653042635,0.8068749524128839,0.4256159799501225,0.41987497981951233,0.04180695033550059,0.5385689149366134,0.02519400405669481,0.6882565424145206,0.058097625346581944,0.5192199553723249,0.02341629247509996,0.44324530602110723,0.022390948777324327,0.7444412972666761,0.06253348600940581,0.8067579784538442,0.18619861545737584,0.6083401664628976,0.08584959942040851,0.7835057582000622,0.1307857266250066,0.874607051065442,0.9719463486596229,0.8099024541589064,0.4613012159233576,0.4671928780116865,0.05240477085412389,0.8379159568903379,0.525032107405988,0.9139640753444749,0.4450185270101686,0.7017589746215208,0.2880390301975245,0.6646062271062271,0.3483089770029295,0.12023925200949083,0.8750955764926877,0.5485186854735483,0.8238869683749034,0.4049082247014563,0.9007235135362831,0.49279771729564487,0.6004888751235092,0.3407711647951042,0.5757010483424914,0.20675865307334393,0.6434448228175373,0.4527919034383973,0.7944918341930469,0.4041469584808252,0.8653031034899168,0.9698923412800406,0.7960346330491037,0.37326264433222434,0.8972012533827091,0.39502788205253037,0.7382436914368289,0.42810140244841877
14,3.53970475517496,0.6431570109151973,0.5674969274820388,0.13390415823799526,0.4011012761847552,0.1521506016238146,0.7013806220324836,0.05581105607299947,0.888829745629694,0.5643445440223842,0.9413091514240222,0.5538095528815925,0.9292548177994531,0.6481646336970788,0.9620520123023214,0.6350569971769418,0.6400958065952783,0.05735016163051374,0.804598555869144,0.6062950563567281,0.9864359578815024,0.8813639178413102,0.7894498870418236,0.5567811693247128,0.7366616548254772,0.5648052930087585,0.8358178705817451,0.5280518984674112,0.4727395382704416,0.049741956658687,0.6423646688782243,0.03336615742251676,0.6715474665405343,0.07305632369318635,0.5668039156608535,0.050250181219142806,0.5026400289389577,0.028358005991218176,0.7599235385667902,0.08211196747600391,0.792214696144695,0.16281918215327967,0.6388072654140192,0.108661795319834,0.8034225242068845,0.14565309983027003,0.8799984435638293,0.9736883550539921,0.7848244992617217,0.4640772336238384,0.5339892971643068,0.07213601176131902,0.8612992397029756,0.5378448684942158,0.9209765169542485,0.5408313003686477,0.74133466388586,0.34298094368179227,0.6886446886446886,0.39047449711089044,0.14772306701635474,0.8706593920896549,0.5462520301489284,0.8568826568328755,0.4334317419291329,0.9266260534595305,0.5440953934484094,0.7605012056372729,0.5451717676092858,0.7009629204101114,0.3836675182580878,0.6781321912903737,0.4922892422240514,0.8140793924886943,0.47797776391315083,0.8690718965100833,0.9713800889679474,0.8172610160424326,0.3642416283493889,0.8899159663865546,0.4491905182211746,0.7795061080234976,0.486856432735083
15,3.415726769380866,0.5653003587512404,0.571189996012264,0.12891770252812546,0.3407710473539699,0.11836038317144748,0.6522979200209198,0.06415777531392008,0.9011160208423318,0.5218731842486878,0.9372092625358043,0.6604804866019229,0.9005975020119817,0.6167684681494101,0.8675744200523378,0.4889208558078974,0.5245989055534312,0.028373075058442863,0.5619143229416469,0.3486298799104306,0.9761747603331761,0.757162208904403,0.7322613063905707,0.4634992806867848,0.7105539620583127,0.5521377972225303,0.7805273854669948,0.2991056197841424,0.4600632267034803,0.05450507045999099,0.48581086220981573,0.025174327327406622,0.657310724920934,0.08993736421195549,0.5451344349050469,0.0645482256575214,0.45306823158977355,0.026094559830819333,0.7415908534022116,0.16372692243478368,0.7644307414240964,0.1647777522223366,0.6231908157269874,0.10859212612109725,0.7806914498298689,0.1239722216278138,0.8714108889093682,0.9715698869537466,0.7931781769779074,0.48700470661797873,0.4527337282562445,0.05519180234889575,0.8161248699034663,0.5153158225113776,0.9211232945837337,0.5219582332594809,0.6971351522561732,0.3118798421841981,0.6277472527472527,0.333349514998454,0.12026859144688867,0.8621952415464137,0.5010979272491614,0.8288619067356627,0.4019251930491292,0.791472388538825,0.38668527248618234,0.5264875650793318,0.3087234460679673,0.6510790944405174,0.29687026980189335,0.6486900577762957,0.4521571253350837,0.7695875582956473,0.29477272475421423,0.8556801714768747,0.9679094885912748,0.7668080417509207,0.3441632260203436,0.8916312287626916,0.4203168945205836,0.720531160854694,0.40862637812024744
16,3.3397549381602603,0.7172734905732386,0.6840731618824728,0.17002802785223128,0.39709394008169646,0.15049975720127665,0.6649589431802806,0.04357548161914198,0.9161307460856813,0.5586304234331281,0.9759201192841342,0.8384351992369702,0.9343340183623743,0.7018824763739375,0.8872899916069839,0.4646336759228052,0.5923213303692859,0.043440704602754045,0.6492112517752116,0.400723785553255,0.9851411807847451,0.841990953241831,0.7488707870583469,0.5020872351336807,0.6994237050487839,0.5413080516476676,0.8170300429987163,0.4282875705661855,0.5006169463380239,0.05444142162772784,0.6656138064699638,0.03666788223299867,0.7008612181190871,0.07115857138402276,0.5862064015058857,0.033454068166617015,0.5499915377726861,0.04170565214903256,0.6941486472006229,0.09702410875455858,0.8323778092425219,0.20261515676923372,0.643394719275441,0.11976903889862024,0.8448613437282309,0.17058108919675585,0.8604753683736266,0.9684180957933057,0.7964583162967313,0.5199678512681158,0.6184483705611985,0.09860085762718204,0.881294230574498,0.540331333947391,0.9458230707392552,0.6156856406982991,0.7434211483228327,0.342812744848101,0.6989468864468864,0.38761638613898064,0.14511900165112857,0.8837191872948443,0.5542311301607783,0.865811266413985,0.4590595957789693,0.8328685183732638,0.37836659977464415,0.604577805308537,0.3333564021900811,0.6511762620578606,0.30044724609894236,0.6365728872296348,0.47079278810312397,0.803216859807801,0.381697024447268,0.843429990339331,0.9635035363164169,0.8150134540081228,0.37291494091326105,0.9263495228599914,0.49449667954039045,0.7500320127120319,0.4412713586340912
17,3.2948016676954817,0.6473551637279596,0.6149529479829247,0.15248475602304096,0.4384002910159692,0.17994975324046172,0.7092578909519921,0.07416232021604748,0.8727003031469339,0.6063830921743935,0.933926860468159,0.6534147086346727,0.8888971835144157,0.6137003209119712,0.9607376844337432,0.6969019309396115,0.6057872626174118,0.04267070272746456,0.7858779991357748,0.5538349949163346,0.9823515113416103,0.7207714759330421,0.6771640133543415,0.448562051293361,0.7339530347445566,0.6276011577907437,0.7679646873543167,0.39862518255396984,0.5013643657066795,0.06800545903914462,0.5844475460640116,0.02750062824171392,0.6278040662091113,0.06402215484082713,0.5884286494162008,0.08292131089742132,0.5451773673545869,0.04527070121115475,0.7527672684520157,0.16281899143248965,0.8037808144231313,0.19831756923607738,0.6312708561412887,0.17659418845120017,0.8285459142082183,0.175256138307851,0.8750387777880175,0.9725899217744689,0.7975772956381092,0.4998704165503056,0.5224690300252351,0.07503201258095601,0.8538708998995178,0.5657154133761293,0.9023676113905857,0.5047323561424044,0.732847486399217,0.3476929522013799,0.6572802197802198,0.4216325857404048,0.1622967302249766,0.8272200256571557,0.57226449337442,0.8173347277831666,0.36254850344684897,0.9245060614775886,0.532135869818087,0.742090447876457,0.4546556589165509,0.5799417207851143,0.25844520303957097,0.659668647203835,0.520515452175764,0.7538841683154326,0.32711802417481445,0.860585225214346,0.9687186553705014,0.786715949701479,0.3629969991391327,0.862120780515596,0.4185815261318395,0.7487000309336888,0.44911610143750075
18,3.1267902464386563,0.5617128463476071,0.5321789872457818,0.08473779775744959,0.42549655958783006,0.16452304136026244,0.5942873931770118,0.05106957023778093,0.8248237537966295,0.422089557597105,0.9481004062021309,0.7698876398352256,0.9218559382481718,0.6659065968071786,0.8575477631635815,0.31228801433796993,0.4855442846442986,0.021389816829827907,0.6580007316967745,0.4269036830087811,0.9796877783016396,0.792726472587422,0.6580865231601144,0.36220606570243846,0.6144454947869986,0.442843233227247,0.7075720285268898,0.3066467578814581,0.49165870429737313,0.05887112938413973,0.5726701747306937,0.02328317310524978,0.6315086639050259,0.10990996933412248,0.47835289274442305,0.020554131401207813,0.5137694852083057,0.03408836543401461,0.753893321164246,0.1031404684852053,0.756204663734954,0.15453354098445402,0.6366206069869846,0.22360003303699144,0.7994852662492615,0.18116481574474083,0.8632193243838253,0.9700846076989905,0.7591398116218875,0.42245778926306804,0.4696204874729848,0.0485241281125204,0.8281802723024555,0.550396207853866,0.8552454612369561,0.47821877709347516,0.6895258066139713,0.30377945867045153,0.6059981684981685,0.3936644296976836,0.1410490622966991,0.7853959916474716,0.4195193649323417,0.8460279545172911,0.40828479956730623,0.7991265836390944,0.27018230438876617,0.6043891146177832,0.35030447885011706,0.5670221648945144,0.19358947326132825,0.5389582775339306,0.34051541262216295,0.6691495680822498,0.24726331695196063,0.8444662480376767,0.9659524572064719,0.74770435623444,0.32208484519897784,0.8036462042444097,0.39049467314566927,0.6908682630133223,0.3681127444019819
19,3.058349242056429,0.7242195252270819,0.6374039020978107,0.10600857299677094,0.41120370710130605,0.16291093784046123,0.6444634107035077,0.07613180177281828,0.9067584792077157,0.5282615633819987,0.9523382203059466,0.775173379047727,0.8938131137387414,0.6061945295890891,0.9324754744772838,0.5192647188889044,0.6375570168614316,0.047921328895376064,0.6925424301704657,0.4355150507715115,0.9812669076431452,0.8313856599367803,0.7748346935523847,0.4883049112946952,0.6644023429470565,0.5396321248482526,0.762827482845262,0.31887688977680373,0.5324323500630949,0.08029324062662578,0.5079589616042283,0.026811327373925133,0.6594824753791292,0.11513678129868404,0.561382816555197,0.04271278952930925,0.4573017862738954,0.027877003820233993,0.7894429420417239,0.179270027563387,0.7349264704636107,0.16768861391864737,0.6272031929485521,0.21495097989912387,0.7784686300374988,0.18554383893575452,0.8546222263181068,0.9683220634276887,0.77338256413649,0.44250466872573546,0.46611786811140554,0.05289060245716615,0.8172676821935668,0.5083435951267954,0.9263884980420481,0.4988234139174219,0.7177135424378001,0.33136112650598837,0.6556776556776557,0.3831256816282732,0.13767735883563154,0.86827785312275,0.49851293766864574,0.8145395965353833,0.3280800004512847,0.8754433898955036,0.413757841789012,0.6362944648008745,0.3524713624200071,0.6758990140156279,0.2751223049590026,0.5748006253177149,0.4124953678849109,0.7308408263849633,0.2653911313228548,0.8403340478203116,0.964593756645275,0.7390437268578929,0.2889498622568377,0.8859523470405111,0.4270905457170435,0.7295046884927097,0.39674022454095503
20,2.9189410031856395,0.7573467674223342,0.6393340317319195,0.1306315551194254,0.4550404110827072,0.16101091133588566,0.813366499581146,0.10667812889777066,0.9165821755728879,0.5103298561080947,0.9183212240948853,0.6461723305651687,0.9263559264483981,0.6636427204760355,0.9456387074894425,0.6624783139233898,0.6735548851662615,0.061496348718304374,0.8507285847592896,0.6207724402833581,0.9683065639897324,0.6757426926761055,0.7513565308217965,0.4468419288378431,0.7699844767329123,0.6349355230982084,0.8322949880247439,0.4598604563740509,0.5993594960314453,0.14743641595994222,0.7124778816673336,0.05089584270407626,0.6854569491785669,0.14576018931313084,0.645603756361532,0.056312719448802076,0.5537001553888115,0.03497360217710466,0.899691576578703,0.22121873339894016,0.81183036902224,0.2249106307661314,0.6685955517608282,0.27495036401349815,0.8558734911059681,0.2569719247031655,0.8926090580489254,0.9764311733102049,0.8381689718529299,0.4310420084090929,0.5850671112665198,0.07430249049125824,0.8977631185539677,0.6186117324693733,0.9228439500575653,0.5417536723220328,0.7788854237915355,0.3643023965148294,0.6778846153846154,0.4240719230173854,0.1447678148159396,0.8907593577259691,0.4905804696721989,0.836643193190413,0.3958809815840375,0.8787265086876821,0.4988174785149942,0.7808332837546356,0.5132129909898119,0.624141775028136,0.2353972240473325,0.6939285694764057,0.4997543529427315,0.8088167750141324,0.35864882498750306,0.8751283057601739,0.9720187756628766,0.8105177381643489,0.3387734458938469,0.8661383197346736,0.44577818848738904,0.7717914317776323,0.44487550432715106
21,2.818311897109241,0.7809327532249447,0.6087791480626793,0.14272530701535502,0.46766560706773774,0.24609235909127314,0.722099074568185,0.12437784861035145,0.8278642024985784,0.44235154203022675,0.9131191496057075,0.6954932214126447,0.8730341938177854,0.6171003635413325,0.9426295253623845,0.6574266628095484,0.5657436460176546,0.038942393490082806,0.7180419070014308,0.5167690026509074,0.9778241919430039,0.8384542612561198,0.6308314904479773,0.3564564732243836,0.7302724651753318,0.6516370056888408,0.7120939399727768,0.2769150681275958,0.5505017116348336,0.1293232524927754,0.5908592992912212,0.03562516841014168,0.6255451334377352,0.09844492443543157,0.5159631195222214,0.07430105625478589,0.5249370679963212,0.03974772534048074,0.8371642729382426,0.20379413044054115,0.7793286800615178,0.21240335799386661,0.663803702160545,0.32588243392550265,0.8242924263630069,0.23460445611653835,0.8869912245671162,0.9753802326440377,0.7454972069160795,0.416463451743794,0.4504351384143541,0.05027774671778516,0.8693623187711098,0.5920781400702325,0.8980953626060558,0.4799452328261043,0.7204731557859849,0.3508523266059511,0.7234432234432234,0.4216158191958219,0.18140707848479437,0.7780903198852525,0.3959153982520714,0.773639770449913,0.3921845102760933,0.8767775540855783,0.540678246168511,0.6483425258071704,0.41671146322881436,0.49637169710184237,0.16595425931920915,0.6405959102909586,0.48489352792462004,0.6947234710641605,0.23260204257139644,0.8675627943485087,0.9704049242122884,0.7861155938079015,0.3250676678037267,0.836226015830061,0.3601354684737379,0.7109146792606517,0.4059958715195693
22,2.7809686214175353,0.785665216395695,0.7081876883551569,0.20151040839089485,0.5391557365798103,0.304812422896444,0.7709054545288689,0.13657071934199275,0.950723991891043,0.6848504564896152,0.9081872223463507,0.47555114986513236,0.9235548046511337,0.597324466092914,0.8862900968682339,0.6095070268700766,0.6742720645253545,0.08595361511852972,0.768134319901672,0.5741967386606892,0.9894890250929854,0.8820856075791738,0.7932405571488708,0.5259502179461775,0.6961994636824862,0.576866401422202,0.7644760007320068,0.3552647516232851,0.6484074712283904,0.15213774351753007,0.736614729238534,0.06223096637202768,0.7496999041645169,0.17586000628187354,0.7045523360917373,0.08396061135163183,0.6274068527302772,0.077703659860913,0.7679379766194665,0.19875499307050554,0.8429524152053584,0.2384965259410608,0.6796296745698546,0.3204054428569964,0.841123648321028,0.19364775941664916,0.8739707349041052,0.9729921816211633,0.8608398271500804,0.5855802544780313,0.7039665897112909,0.15140328853999774,0.8986485539137411,0.6406468122232314,0.9430876902953059,0.5786543802450341,0.787098327053617,0.38677476326199156,0.6971153846153846,0.48732546709448654,0.2126343410249948,0.9145061794836837,0.6005827567958281,0.8214673344073018,0.3179033245563682,0.817008886681018,0.46968097833963895,0.6912317448318583,0.44597216610052326,0.6737004632012352,0.2795197413651809,0.6100365133071327,0.4417836784821606,0.7356331039782363,0.29521378402213544,0.8555707342108441,0.9683867411421576,0.7908252363697909,0.3592604382283139,0.893632368201518,0.4444991777046493,0.7537216392515552,0.4395851934329047
23,2.7573069062417503,0.728265017937562,0.6387425720243971,0.14430657876574468,0.43595888719914794,0.18425308340765117,0.7230834956297787,0.11584639468602873,0.888341395919887,0.5206619090001688,0.9230735005109397,0.6869539685097213,0.8818920913100204,0.5236027915651605,0.8906376566196779,0.4814661560690074,0.6203919572602677,0.03859661189735725,0.7817449248190326,0.5603597601916397,0.9664879249829746,0.6927390553066427,0.6777583715433912,0.4069544620012969,0.6344214876628126,0.47090779740386746,0.7340243873117054,0.32725874325461474,0.6063011719509341,0.15642585521507513,0.6886458123174721,0.05199835491856292,0.6806804644605203,0.13579930765808454,0.5751507228132141,0.046346432726316916,0.5307125381381426,0.03613472560193033,0.8720917642104443,0.2043453805839665,0.780868913936392,0.23046716524320293,0.6340904406710606,0.2633046958188002,0.8472377790434973,0.25497665784377066,0.8609676322714753,0.9701878465956602,0.8115183662993499,0.4579097491114993,0.5575546648228271,0.07787007115146594,0.8870839682124062,0.6596093971753733,0.9006736531748883,0.48834014541278,0.7418569090783947,0.3402823369301996,0.6398809523809523,0.39548418466438257,0.14168417535617556,0.8544773650148976,0.4918074709360603,0.8184932677557335,0.3088430390353838,0.8152854399618851,0.3612559727472843,0.7012935957154673,0.42828029799394485,0.5635102495819657,0.21028319881563223,0.5558276440717804,0.35329243548736133,0.704092729826173,0.2563555457131118,0.8450285291631446,0.9638021714650109,0.7613453653057614,0.31453159727932145,0.8455816224795003,0.390420144333246,0.7145836357764265,0.38368691356023016
24,2.6556636786863064,0.766964353866117,0.6095440089168394,0.1737735578630861,0.4695078776808781,0.22867054553523358,0.7049564650237857,0.10217183763186087,0.7988596300429606,0.45543694079789804,0.9326667884467901,0.5643096887927967,0.9237617823148844,0.6718507365262406,0.9325342918148573,0.5913227161923755,0.6264122323018592,0.06436201925409477,0.8056187874082734,0.6227026159334156,0.9751697836450312,0.8647575815703122,0.766787284066455,0.4884284245087536,0.6347234315805727,0.5078914035923054,0.7040588971543906,0.2782211073129525,0.6533691530125761,0.19005059075659658,0.6988278523967177,0.06571248767585096,0.6144079182360025,0.12395732210306569,0.575436917170319,0.07612644948840208,0.5962290083292494,0.047650187133119366,0.8174123604657525,0.21643130095413085,0.7990590124401745,0.26688682775080647,0.6483073947849008,0.33707629861836613,0.85883601569398,0.2539182028691391,0.8675763012113579,0.9714267397731329,0.8325886998247183,0.5182055893192183,0.571379446174068,0.09214564027156293,0.8812534265494595,0.6823777039299009,0.8594898096680282,0.42543490478115065,0.7466212806057363,0.3659740526272507,0.7055860805860806,0.4236437912510611,0.16015436125648946,0.7599006881507473,0.4174421686817703,0.8352255974840079,0.3755362636077601,0.8691429683664369,0.4619122831736243,0.7176160695641624,0.4679040550362684,0.6639148299139586,0.26566452768118165,0.5518557287083145,0.3830247328589216,0.6842733138425665,0.23858131483046593,0.850584168578674,0.9659779665329462,0.7581959379369891,0.33766459888611194,0.8044692453252488,0.35272802107165957,0.719892939920197,0.40241729941974547
25,2.5645760238812123,0.819784749255782,0.675439794991142,0.15782163233157978,0.5075944340930825,0.22858489595411177,0.7278940458869444,0.10509029990340413,0.8776077300189122,0.5080224655312223,0.9034208556680763,0.4788334730643927,0.8985797407035845,0.5823216406443528,0.8992329609222836,0.5150573076363979,0.6175613508043307,0.04704423552502077,0.7510921096815671,0.5297560798707879,0.9713937869977473,0.8185152856929689,0.7003732734168152,0.38449127816298556,0.6841200790733049,0.5137549123603816,0.7341049681617147,0.3353139846176631,0.6516599892590385,0.21963322606612623,0.6645435272249802,0.04503649901129665,0.6949611225438497,0.1422035781990048,0.6120815409673706,0.056863724727778335,0.5696090264997904,0.04404139289623846,0.7957925605213525,0.22180625028430714,0.8163589532206186,0.2999768233898081,0.665004441676633,0.35461473052284154,0.8161301592477392,0.23046723476935363,0.8803239025589039,0.9734590636336595,0.7830598135575518,0.41794902904909964,0.5273339912456239,0.0697313551209529,0.9044031497591604,0.6568447706404192,0.9166560297762655,0.5060485933461433,0.7498641977214218,0.3497512504797147,0.6897893772893773,0.44542392258379476,0.165061188387899,0.8387290698443907,0.45786365693311354,0.8202057062767335,0.36203048528844,0.8448520290625553,0.3981088074783088,0.6954313521685722,0.4345813241842753,0.5720935670766215,0.17843180828079214,0.5981262332806769,0.3891472202793663,0.6967836922343131,0.25023842812100805,0.8565190647264824,0.9661049556583909,0.7946617146921794,0.31064892305609526,0.8513357885527091,0.4048414830670341,0.7285601945908208,0.3924598437031566
26,2.4975318312963433,0.7855888863445538,0.5688521857369795,0.12205853615146899,0.4413078685300024,0.1717771551190041,0.6895101764052136,0.06743347912695019,0.8754088344896505,0.4710798373879603,0.8883714911053543,0.5625234963910006,0.8723837011892728,0.6232435988810303,0.7812323112303297,0.3700555183625849,0.5614484440326079,0.0422972692449088,0.6962128883253151,0.47703980469454177,0.9644846770391324,0.8193279826521025,0.6061867714517265,0.3409901919163282,0.5232038030971276,0.3381666897088772,0.6364933070808294,0.1841871671877412,0.5979166323461094,0.1784475571298953,0.6246253526530423,0.035826826351182846,0.6601857894130744,0.14317390583089826,0.49758105173349876,0.033127376109977236,0.4585281117981117,0.025460543169851246,0.7948066321526172,0.18243631936484625,0.7093681642852856,0.1830556988248198,0.678707672052164,0.36367843330856325,0.8110463429765628,0.24840539685782626,0.8202606006614854,0.9608292193325204,0.7651685482732313,0.3989210411824879,0.49716150254668934,0.06819100226515973,0.8308362488338497,0.5739562122711108,0.8555916089486458,0.43036427517697695,0.692847434014367,0.3117057234815042,0.6657509157509157,0.39399254707597314,0.13507199153478777,0.8440462721779322,0.44375906338998483,0.7896478123945082,0.36936086349163044,0.7041322049950178,0.2885920031801964,0.6373618649989559,0.3862751351403726,0.49044020133984534,0.16564095028960696,0.46422283502872413,0.2668670737790093,0.611655761994771,0.1595304988453369,0.8096772732761743,0.9574925558541867,0.6793993008768333,0.23509238567629473,0.7836765214560402,0.3255417051599503,0.655295690510434,0.339384020576487
27,2.4674253461834272,0.8401648729104648,0.6468556537599122,0.16104228233378998,0.5047073554467417,0.27757622692903405,0.7171161556039023,0.10386430411097113,0.8770028764955654,0.5191304607193395,0.8794657324822814,0.5236368466393962,0.8809054857388898,0.6521353284856938,0.8273282864862679,0.4644256053949014,0.667270038029089,0.06136231817597508,0.6980772418419443,0.49249353989174716,0.9789302739797789,0.8560490491207549,0.6781504610778679,0.44685811321716473,0.5378747869096151,0.4221957783058275,0.687017433247799,0.2739988366350747,0.6601206381317317,0.2185856862082832,0.7946492652579287,0.10061530863597423,0.694358003108635,0.1828677959595319,0.5665141788328789,0.04450374613570002,0.5732670799829267,0.04733857913874498,0.807993681665966,0.24051167687015745,0.8347573540553191,0.3203475839122141,0.7036039617226255,0.4099918943395408,0.8566537436240559,0.256725694899805,0.8376716943650867,0.9650556261458717,0.8634535864765672,0.561153337497033,0.6226356496480134,0.13405875375657006,0.901363759195136,0.7034323083033367,0.8706064677487956,0.49360189361980916,0.746975957219086,0.36790957686600895,0.7685439560439561,0.4251851435937568,0.16908068100515455,0.8390113145026714,0.47971589830041184,0.7953181952201279,0.40513539355354045,0.7557375596633578,0.3665485614950086,0.6172854088142758,0.3785786691279907,0.5528495738505925,0.23291507297670383,0.48251488135908216,0.3323401235808714,0.6770040232829282,0.23375048905585294,0.8248230135249366,0.9600857474949432,0.7738022322942354,0.33208390013188405,0.7997293832787353,0.3634642017722044,0.6857509753986091,0.3866998853176878
28,2.357624099278448,0.8358140599954202,0.6315734724029052,0.16097165939008584,0.5176071683068026,0.2945969300393906,0.7814855103862124,0.10018024147752222,0.8784589006816841,0.5348285650926543,0.8900734773626517,0.5685106316429026,0.8925543909366179,0.6391403963257727,0.8059570286631264,0.3908688757092846,0.558133418668333,0.04043226279509361,0.6906142949432446,0.46793789945829956,0.952928073759757,0.7551506569105911,0.6386776148072089,0.37729551269081113,0.742702192385203,0.6236016041953147,0.772740029413847,0.33838318834858283,0.6745247289225103,0.20831702909355707,0.8039937026833052,0.08472743393772512,0.7074769893995415,0.21615904938988276,0.5689458054161769,0.03322211663700113,0.6041881515798793,0.05922633117097107,0.8048963342122952,0.24546407558772446,0.8257327276012284,0.3245317296695492,0.6983195799154869,0.4168646691024994,0.8652452025586355,0.29399118001514235,0.8372120951474006,0.9648963127276133,0.8180847704568627,0.49511988354664255,0.6244281007890735,0.11639531347857246,0.9148909825501379,0.7228356814364622,0.9036713083993928,0.5428585866283911,0.7557450389759082,0.3709817709814089,0.7273351648351648,0.4285661368048659,0.16337908156670727,0.827177768688543,0.45583160917938625,0.8132598077966696,0.39408458038986455,0.7423712244678594,0.3123417481010859,0.6292271672598612,0.36886006351332956,0.5010031755658679,0.17349273036289603,0.6438998726407101,0.47494310434303133,0.7425744815220463,0.2665229577561426,0.8221274604516363,0.9593429589875031,0.7619424664359927,0.32917498677859613,0.8190367672492727,0.4105204848015473,0.7028351208075749,0.3916813005254627
29,2.328889851333185,0.8119227539882452,0.6356729958357575,0.1564312589936066,0.4650245827857531,0.24872187412022012,0.7677655694362726,0.12505732732061922,0.833128798338827,0.48696264254762656,0.9155734971561156,0.6236355297748556,0.9004763737224336,0.6753686643865199,0.8972105594461167,0.6001433736141077,0.6564273066119717,0.05664705381147748,0.7516143214229575,0.5712967439703116,0.9754195610037195,0.8110138593608508,0.6232105632369083,0.4105191664066154,0.6675863094714469,0.5508610304194508,0.6992368362348672,0.2819752095083504,0.721182016467278,0.2557469672984578,0.7731232904802697,0.0877370388383122,0.7165969750339783,0.14028970348128006,0.565575610498243,0.05262990025041393,0.5771962037146388,0.05584775693887022,0.7745144541632291,0.1983883175903913,0.838697471457157,0.37161720668307324,0.6874189295747304,0.4054919857812421,0.8587120434146476,0.2852172953599549,0.8547711117254938,0.9687996017846958,0.7682859784706354,0.46050079961492124,0.5668193925440352,0.10622096226873451,0.9201526945336389,0.7558787911375175,0.9077554159914055,0.5319243779973115,0.7525610689915752,0.38055275700962177,0.7403846153846154,0.3799840990770212,0.13876225344737358,0.7743461930059137,0.43780111740147215,0.8090785948389689,0.3895390179053884,0.8256580763051858,0.4816870214213177,0.6655528958042424,0.44097409632211626,0.4819700681027542,0.17590946376783403,0.5755429168010407,0.40155667722505517,0.677737135210571,0.23621591512968862,0.8378026506460572,0.9632886856953462,0.7767386206076229,0.3478645680877162,0.8219321626955868,0.3889183004951509,0.6933039466449968,0.40022882880895083
