epoch,train_loss,train_accuracy,train_1st degree av block_rocauc,train_1st degree av block_prauc,train_abnormal QRS_rocauc,train_abnormal QRS_prauc,train_anterior myocardial infarction_rocauc,train_anterior myocardial infarction_prauc,train_atrial fibrillation_rocauc,train_atrial fibrillation_prauc,train_complete right bundle branch block_rocauc,train_complete right bundle branch block_prauc,train_incomplete right bundle branch block_rocauc,train_incomplete right bundle branch block_prauc,train_left atrial enlargement_rocauc,train_left atrial enlargement_prauc,train_left axis deviation_rocauc,train_left axis deviation_prauc,train_left bundle branch block_rocauc,train_left bundle branch block_prauc,train_left ventricular hypertrophy_rocauc,train_left ventricular hypertrophy_prauc,train_nonspecific intraventricular conduction disorder_rocauc,train_nonspecific intraventricular conduction disorder_prauc,train_nonspecific st t abnormality_rocauc,train_nonspecific st t abnormality_prauc,train_normal ecg_rocauc,train_normal ecg_prauc,train_premature atrial contraction_rocauc,train_premature atrial contraction_prauc,train_qwave abnormal_rocauc,train_qwave abnormal_prauc,train_right axis deviation_rocauc,train_right axis deviation_prauc,train_s t changes_rocauc,train_s t changes_prauc,train_sinus arrhythmia_rocauc,train_sinus arrhythmia_prauc,train_sinus bradycardia_rocauc,train_sinus bradycardia_prauc,train_sinus tachycardia_rocauc,train_sinus tachycardia_prauc,train_t wave abnormal_rocauc,train_t wave abnormal_prauc,train_mean_rocaucs,train_mean_praucs,valid_accuracy,valid_abnormal QRS_rocauc,valid_abnormal QRS_prauc,valid_atrial fibrillation_rocauc,valid_atrial fibrillation_prauc,valid_incomplete right bundle branch block_rocauc,valid_incomplete right bundle branch block_prauc,valid_left axis deviation_rocauc,valid_left axis deviation_prauc,valid_left ventricular hypertrophy_rocauc,valid_left ventricular hypertrophy_prauc,valid_normal ecg_rocauc,valid_normal ecg_prauc,valid_t wave abnormal_rocauc,valid_t wave abnormal_prauc,valid_mean_rocaucs,valid_mean_praucs
0,5.234408665809838,0.33264636287306315,0.6673207333238848,0.05867889552047091,0.5042382017825627,0.17375304438988465,0.6454900740396811,0.02454685065643685,0.8589336832486801,0.2902399850563187,0.8492919810975778,0.4515357447453698,0.7924160218607417,0.2208568007840198,0.6790765528364426,0.0360179954618608,0.8034424652875313,0.6158029776107906,0.9208066661799658,0.2726585292664987,0.6779668948021254,0.24855182198571193,0.5508849489886903,0.044530748468307686,0.5057934395532061,0.02092825050345356,0.8976628043260088,0.7067595382555911,0.7189020632795733,0.04333627142075156,0.5295485618482585,0.032331166898181656,0.378149443049001,0.011892673131306007,0.6139590536520261,0.06341162970322206,0.5547437696051112,0.03642701952593694,0.7898407337993331,0.1315489830074784,0.8652268438631767,0.4422154926299137,0.7688143309018792,0.2815508605607115,0.6939290127297836,0.2003607275991532,0.42971611721611724,0.5152028256404668,0.18035488626330928,0.8623211142413663,0.3125884615787063,0.7478696563371111,0.20535745097439662,0.8015356420256283,0.6037939460408454,0.6952139896137026,0.2534724277021837,0.8835685695152311,0.6690376670441175,0.7438428331623355,0.24808860782701816,0.7499363757908346,0.35324192106151103
1,4.750309528681024,0.3273032592931837,0.48791066054173926,0.045783382360545674,0.3872632418422277,0.12509054896764618,0.4453742824446127,0.016085721199549093,0.9256789797367961,0.5552622770140189,0.9100367789392181,0.48145408345373103,0.7309695315667849,0.14913488169202513,0.4208939207294617,0.01655593263670148,0.670886009764184,0.4057295038865756,0.9388398357474599,0.44266708893837803,0.6046954462415481,0.195549909282353,0.3874625291487132,0.027903327515777527,0.3669382809934024,0.013125159549952036,0.9208884459634914,0.7915225245531969,0.656295583829248,0.10044225362658626,0.4482227660098569,0.024465603776469634,0.3905835158016574,0.012392885117423532,0.5334601294727426,0.05035451851816877,0.6387862145150602,0.06299420162957342,0.8618892294950581,0.332317421818846,0.8832761942161476,0.3022566373055555,0.6613895492914795,0.2419566966595366,0.6319876726805186,0.20919259807155285,0.3360805860805861,0.3945958392526362,0.11659956730172744,0.9229419034817963,0.5428202969293265,0.7484180112723057,0.18242870397075353,0.6674708969885347,0.4017596823514851,0.6127459912536444,0.19100122506736944,0.9085270346949939,0.7575920779454642,0.6382048821497609,0.2270653558588819,0.6989863655848103,0.34560955848928687
2,4.517893864538695,0.302419662621174,0.3873132300099211,0.0335087574227453,0.5117870541584082,0.21411865436321956,0.41507120898246536,0.014182296743186185,0.83692814540107,0.49644921751793686,0.8684788085811039,0.3420407821590743,0.7347540346709079,0.1336422464868802,0.4143742935880015,0.0159817254540413,0.6504631278658922,0.43454334062955213,0.9164158805095217,0.4264377741244997,0.6198725913735665,0.23034260962000397,0.390711305030138,0.027917458240449576,0.4327096970266885,0.018112716127261883,0.9265851200460391,0.8080598476521036,0.6029946114992182,0.0824391736485128,0.5312084083613873,0.030596586245346356,0.3035010053159436,0.010448088464765628,0.5691252820708688,0.05618537684158641,0.6328992538402352,0.07017562394860062,0.8054456600979116,0.3342769025052935,0.7739174016303842,0.2586680636880274,0.7447420679354365,0.3498706326365549,0.622347532761672,0.20895227973903058,0.3475274725274725,0.5184528055953602,0.21084744607014166,0.8206760518836321,0.4947246420123041,0.7560970150772174,0.16350089413568267,0.649555757557986,0.4246341097825777,0.6210738201530612,0.21264930899353587,0.9136566488940236,0.7732709656025476,0.7166760231524628,0.30489900195495123,0.7137411603305347,0.3692180526502487
3,4.364957351428336,0.5288145943057782,0.6414858229051165,0.11705899502636186,0.5463767341632384,0.3209424322929224,0.5315200958235979,0.02365562618694532,0.9179409843555361,0.5949445179497483,0.9326583594506408,0.7411557163900574,0.90055992807568,0.4277705121128876,0.548255082991504,0.023061084926333828,0.7692258957768441,0.5492762639368374,0.9567185453771977,0.64404236478252,0.5719998399428305,0.22872842028387114,0.4826897829620358,0.03961125021370278,0.508099708215618,0.03226519165894188,0.9270564612912056,0.8074517475917956,0.7499412527170619,0.2251176330976149,0.6568634915876286,0.08093077651192611,0.5474687367623456,0.035221585531824876,0.6115604696786974,0.07439374824543582,0.6720536013614943,0.10091596235980009,0.8669202483484123,0.4504898640692372,0.7632797236200578,0.25823420430226385,0.743903628613272,0.3290604759735671,0.7069799235247626,0.2906823034973617,0.55242673992674,0.541416068568656,0.3108488792430889,0.9115955839821562,0.622416181034085,0.8944503225018821,0.4767987233533123,0.7640908424478785,0.5538184207742042,0.559990547558309,0.21193621873992158,0.911088135610549,0.7549500508144457,0.7286897509146771,0.31274370518131017,0.7587601787977297,0.4633588827343382
4,4.239834467315208,0.4462254789710709,0.5515532693606342,0.07855266438769082,0.5492759288868734,0.32646464616894166,0.48085557597773043,0.018321750722131835,0.8705455841777823,0.4845106531589761,0.939950657243636,0.766957056588729,0.8871025979560424,0.4874787268280511,0.547260708888409,0.024867847331888612,0.7653454322210349,0.5578629836251692,0.9448784194117951,0.7154973761197381,0.649926624466286,0.2616008303736885,0.45446686515249046,0.0326515746914806,0.48492049863647696,0.021932315526143026,0.9371886277344601,0.8298961144218991,0.7197690544312325,0.2231001076102616,0.6298210497371551,0.0643487969902463,0.47720997977435575,0.020865496722513782,0.6146860137292033,0.06911993425113155,0.6767977090624637,0.16394035022735262,0.8557642871755945,0.4357921190567441,0.8170064767444754,0.3351083308303381,0.7851029614352923,0.39922250300603257,0.6971156343906393,0.3008615323161499,0.5160256410256411,0.5472145525418224,0.31842168542370203,0.8537787080692615,0.47715118507156135,0.8912537896514539,0.5293811870862459,0.7623382107145998,0.5564925869075282,0.6425046692784256,0.2291129226976649,0.9222970416984037,0.7835922992782575,0.7664245042214805,0.35852790440125254,0.7694016394536353,0.46466853869517316
5,4.154187923514673,0.5501106785741546,0.8371055549534376,0.23900134849055382,0.6438725761676594,0.4028830557906472,0.5588552085210081,0.02505091832779497,0.9793882489836274,0.7873233979385755,0.9557094413479416,0.804817297706083,0.9327504409153718,0.5704139997250776,0.5767325349554882,0.03775765133034882,0.7187783894469847,0.5201079502240024,0.9751437795569399,0.8014484099851472,0.7451739583865757,0.35510221595911134,0.5868799794833821,0.06955030469219706,0.566832728913093,0.02518390478408561,0.9360435829233544,0.8165490417074789,0.8478401623924893,0.27104941096873136,0.6816870762068616,0.07744983082680476,0.4916640067060838,0.03035185742611389,0.6871444353219393,0.09160584383746134,0.7277285581386079,0.16248028459431593,0.8630031173216965,0.4056089137805198,0.8784130974570691,0.5503084236890647,0.8084361724333465,0.3970216262347354,0.7618658595491884,0.35433646133423097,0.5043498168498168,0.6212453459374222,0.3721938691158497,0.9754464081362592,0.7670306924116286,0.9343896880786213,0.6154775261296798,0.7125874556490631,0.5007869660841958,0.7314902970116618,0.33994126732402513,0.916141453539789,0.7514536882903387,0.7876112753489323,0.33799365192725805,0.8112731319573927,0.5264110944689965
6,4.0606563551700185,0.4987405541561713,0.6161461312079503,0.17501788830573828,0.6282689403268451,0.38239913780430473,0.4968442161528563,0.019000289060566413,0.8984561665887357,0.5655301271787244,0.9339949214669171,0.7023463562146673,0.8765707610120582,0.45522508041840365,0.5341195407845776,0.028782383907880238,0.8474535930980803,0.6980897812941598,0.9138086508380718,0.671923371861118,0.71149044300321,0.3336876681644705,0.4654466525473385,0.039956663666831406,0.5375261835938405,0.02629178274857103,0.9366027918336409,0.815979245304575,0.8337489391115661,0.35187351218242696,0.6723664914367768,0.08039165555855915,0.5653183152456014,0.03514049416834332,0.6495558710004248,0.08794480833204188,0.7057827559723744,0.2118573280648139,0.8681891172418391,0.4707734009598464,0.8805762609197572,0.5869309736472152,0.7938045913637491,0.4115541391692046,0.7317176826069623,0.34050933752440293,0.4271978021978022,0.6089908984936359,0.35048342084504036,0.8790763481712977,0.5405007694053995,0.9015575721814149,0.5079135959201038,0.8250021992200098,0.6531026384860666,0.7004190962099126,0.30039151742433384,0.9118843261646364,0.7436128264088029,0.7674648716963078,0.3471673338607006,0.7991993303053164,0.4918817289072068
7,4.0057085028641755,0.5195023280665598,0.8331491408705511,0.3066906687900959,0.5936960921139905,0.3801465795415654,0.5851349513297874,0.02525990168442745,0.9596699064473182,0.7312607920665137,0.9557348541423022,0.775394506226262,0.937350280689875,0.5444659238198033,0.5526088033222001,0.02984403366633013,0.8175446098621926,0.6867281757702046,0.9831671339896586,0.860353631228246,0.687583673064874,0.31858233916373446,0.5833796712245941,0.07608069212280447,0.5851155894085404,0.03265028174946624,0.9424130482079066,0.8294798215758957,0.8644934546777211,0.3425227603265291,0.6972450939768147,0.07136478288070394,0.6404429356418808,0.036843193899213963,0.6948407554770952,0.10777118669224704,0.758849748065202,0.2802694380851308,0.8739884552483422,0.4572313412692542,0.8546439429298727,0.568844386794607,0.8213003306553578,0.4209780429638187,0.7724929748260037,0.3753696419198502,0.4725274725274725,0.5830556143773784,0.3554177045737567,0.942808990166745,0.7098694458617828,0.9280830976458381,0.5897721177850483,0.7998028032724394,0.6481516553301715,0.6642327578352769,0.25279739606351137,0.9169830128975202,0.7553013451796962,0.7891909082612699,0.36970487460007634,0.803451026350924,0.5258592199134348
8,3.9342666119621432,0.5537745210289291,0.7678668078401294,0.251326216544044,0.5238010225910882,0.3127542428776047,0.5002065163749683,0.02028998577029672,0.9304689591416426,0.6692934094465359,0.9501147685406044,0.6996912132045676,0.9329361445296968,0.5223291203338628,0.4998603050429879,0.025668521874394022,0.7372357571328962,0.4765600590764767,0.9743380191814232,0.7813119510584583,0.6466186963091585,0.294549947441281,0.5136297939336709,0.07783089956702959,0.5109109096831257,0.025418912437502057,0.9399251580845972,0.836797744024809,0.8606473825585567,0.3615395611380686,0.6371951219512194,0.10066915116364335,0.5268862352260321,0.04341545808160824,0.6137114427960446,0.08708250660476739,0.7247332067787151,0.26168238870364724,0.8288480070011102,0.3979743124797599,0.8385095900853794,0.5302002047704735,0.7578452326726464,0.40560393961921454,0.7245851941645569,0.3419995117246688,0.5080128205128205,0.5141329309235345,0.2965833208263653,0.9114765695547777,0.6538725487516556,0.9240747146316154,0.590937014862713,0.7281315426795296,0.44943353362646654,0.6289728726311953,0.27097671898155673,0.9178487263507124,0.7531833855367902,0.7319994579690987,0.3554438273813533,0.7652338306772091,0.48149004999527156
9,3.8887230416361898,0.5753759255018701,0.7878441311579281,0.2814521411289693,0.4820678431980665,0.24954971853027433,0.5320112843395784,0.02105670253585328,0.9202075666665478,0.6438495196242496,0.9483493761033178,0.7400960221149928,0.9214334080002519,0.519567630980488,0.6021840036574679,0.03750490397505972,0.8442956939581818,0.645018691799328,0.9458065309852718,0.6024315086711185,0.7740661372061889,0.4420039942181051,0.539151753338621,0.06548476934249452,0.6204355028408433,0.03692706889052698,0.9412473839718712,0.8331407804822544,0.8560472828131698,0.3553184780381053,0.6361249577519654,0.09438338873458214,0.6027346383547423,0.04162322262856382,0.7149532062264272,0.10726320851434047,0.7327749057424335,0.21564426350955018,0.8571045749669971,0.370536038224293,0.9168606119130583,0.6670951102804353,0.8266790788684679,0.46543518890016716,0.7620180891457808,0.35406582624398814,0.5343406593406593,0.4811549270872096,0.24123796132283432,0.8934454676726022,0.6174424389133477,0.9366390624046229,0.5964930732860148,0.8195487200539542,0.5910526320725669,0.7511775692419825,0.3752036497683272,0.9178332626176394,0.7550109103821225,0.798308089258109,0.38964121366650156,0.7997295854765886,0.5094402684873879
10,3.815583951727469,0.5695748416151439,0.8762285009212403,0.3685734043583247,0.6265229948340516,0.410367166992586,0.594439048116179,0.028987865995630517,0.9696209884959827,0.760283000831489,0.9324719150880542,0.7286881456974174,0.9241299548849093,0.48918615333021276,0.647012432851174,0.04702624695901432,0.7988908065892958,0.6021207269817723,0.9711145270303764,0.8240699615501155,0.7827639065563688,0.4677802245092811,0.5726481892556102,0.07410170827969167,0.5687081692812782,0.03368220352651255,0.947705769649161,0.8509452102780546,0.9038602277144682,0.43625253114521517,0.663250344190203,0.10935699448889287,0.6544987142695201,0.1347851128336629,0.7088300169852358,0.1166633068720235,0.765378023199782,0.3078366259925741,0.9028653591176823,0.5007863596311873,0.9097968726385921,0.6906082361168485,0.8267536872919521,0.48347900749968753,0.787975735664815,0.40312286637477124,0.5668498168498168,0.6074382764908934,0.37019985948398176,0.9604888746478464,0.7133460158780349,0.9107992349482166,0.5598647105899569,0.7698091077031346,0.5648058315676604,0.7458545918367346,0.38426697281297534,0.9216892275290233,0.7642439595945202,0.7965321084172421,0.4100122178454261,0.816087345939013,0.5381056525389365
11,3.757872010340136,0.5661399893137928,0.8482349704452801,0.37331104671692095,0.6205299647162202,0.40621467502617625,0.5472927839617959,0.028986570206683722,0.9600854681024974,0.7423517702062867,0.9471786262799493,0.6907406043570636,0.9259869910281595,0.5780431597195774,0.5824527259565929,0.038823497134397124,0.7293598323492249,0.4834141802957149,0.9684937778895387,0.7664773013425139,0.7607069427616845,0.4319177763755232,0.5238549841964297,0.07962115772098718,0.5606679150295533,0.028678166166148406,0.9447129913606154,0.8420214213942874,0.8680392281856965,0.4003406144563211,0.6870384939267855,0.1174345705004871,0.5366679295264574,0.06516532650710966,0.7057444883193504,0.1102108674151598,0.7547240888672506,0.3250759327019642,0.8553789955991964,0.4914294800719031,0.8327740811259131,0.48258036609637317,0.8104740206346618,0.4476222634613416,0.7604952047744216,0.3776409879939496,0.5853937728937729,0.595656276791056,0.3657274799498117,0.9350622328937568,0.6770276904194139,0.9253891387063299,0.6203227330080384,0.7204770841274962,0.4532164275331406,0.7170440051020409,0.35747536495837,0.9190390503989899,0.7592450589275553,0.7836350915230239,0.3678910791041508,0.7994718399346706,0.5144151191286401
12,3.7059992805581703,0.567361270132051,0.8377103220589093,0.34891534136680863,0.6082475346311405,0.40005110675839367,0.573270585587863,0.029617569826214316,0.9238063198923483,0.7033002123464123,0.9464424939495742,0.7520161314980269,0.9205761819090847,0.588902403677583,0.5523314770836772,0.03271919310882036,0.8709322630248378,0.7247529903462248,0.9653009298691044,0.7013990560919512,0.7683245361881581,0.40994633903646727,0.5586202914107044,0.1074569964732711,0.5638734887790439,0.030054142701263033,0.9542939776962109,0.8664671181206098,0.8921396760399832,0.4844296174060429,0.659719530335521,0.11987172159825413,0.6334575559784976,0.03031449247905279,0.7413122339478158,0.14368213531796603,0.768470710577845,0.33918183433001403,0.8818994874716435,0.48118832872532996,0.8630818888471443,0.55394047974446,0.8345309514493531,0.5007470301236226,0.7770639255584981,0.39756924957508516,0.5096153846153846,0.5779203664451082,0.3553154029199518,0.8920797146982817,0.6441491788802398,0.9190031944981383,0.5897519859346857,0.8457877606075712,0.659392012204983,0.7299158391034986,0.3314444281187471,0.9160326962104909,0.7445937056480924,0.79225670141011,0.38370052632984236,0.8104280389961712,0.5297638914337918
13,3.662812425838919,0.5288909243569193,0.8893308711347512,0.40125642492910585,0.6461828102012388,0.4077576966638599,0.5550109774135177,0.022665530453777193,0.9746792046058902,0.806660014343252,0.9468417180458013,0.760863156699477,0.916287714011267,0.5697778242170438,0.647347700748003,0.037193042727997214,0.8226785930900363,0.6833915559411536,0.9692125630119935,0.8336749631952323,0.7891133708687793,0.44695680456277753,0.6463656883342307,0.1421814442498337,0.5857254610152351,0.03577643426826657,0.9487642942864963,0.8518644247745468,0.9087475016780474,0.4696199375440636,0.6944650778223118,0.1252207429126995,0.48210903054131937,0.019713351155839262,0.6958868361581355,0.11775442086142064,0.800522909731253,0.35773916848189186,0.9043526010680316,0.46115435633708746,0.9439372549067212,0.7237447725664733,0.8268171889598366,0.4757904431162509,0.7902085413158524,0.4167026909524786,0.4913003663003663,0.6155673381948714,0.3535382876229448,0.9586936710124966,0.736982536083454,0.9023612834964494,0.545001001738351,0.7907233967686126,0.6151955798510941,0.7341802569241982,0.3289431587999525,0.9177384354280517,0.7591108059738909,0.7748342795828574,0.35333774844727805,0.8134426659153624,0.527444159788138
14,3.6072463635478926,0.5914052362415083,0.7305957631287151,0.30803232191847874,0.6487222823823046,0.4481163161041854,0.5399847747582869,0.027366218687577035,0.9304900183107693,0.6915281161895203,0.9187993284983604,0.6700791403705115,0.9121645893778763,0.6146025330945714,0.5262413801861753,0.028875452784508378,0.8250781639884821,0.646885455734433,0.87763483192145,0.5085276894915438,0.7149263928993168,0.39100694113384965,0.5593849090763955,0.12914492773320116,0.5470773180913131,0.032016614672185015,0.9583637103735778,0.8792999519294449,0.8821998232581743,0.4669886821665517,0.6630647631341263,0.18060573484983783,0.5076584491286268,0.029258800739595966,0.6356707831553776,0.12929048653320374,0.7902450625548516,0.3931243023352329,0.8990264389878851,0.4505304872595615,0.8933473619299013,0.6843785099121938,0.7878547808606938,0.46183679540907857,0.7499300440953649,0.38911883233567934,0.5558608058608059,0.6074197733155429,0.3773818880625116,0.9099227238490765,0.6258470901649779,0.9091002502695993,0.6067538124500106,0.7993085652288655,0.5880463125521114,0.6804203489431486,0.31132380895471684,0.9211395621079752,0.7680198193345885,0.7482852741819067,0.3483160466986631,0.7965137854137306,0.5179555397453686
15,3.534528135716501,0.6005648423784444,0.8315017466047505,0.436929900963778,0.6055729954638863,0.4164484945353588,0.6424249081536226,0.03758219758870952,0.957017432708816,0.7779707825185023,0.8591182615837052,0.6347974923644479,0.8800157814240779,0.5704471027794655,0.6312805582718465,0.04124808883063072,0.8020705211801321,0.6926019654586648,0.9504126142057175,0.7553000782674177,0.8204670585787643,0.527498089305002,0.6701608890081541,0.1562286844862719,0.5632849115720241,0.03192170646213547,0.9406370967175954,0.8091922056341743,0.9132527620597548,0.5193355864998785,0.6711054950132997,0.13208157189332467,0.5656930713744488,0.027639535560469757,0.7173082661592817,0.13713066517526698,0.8318713356637035,0.4934310158701963,0.938464695395313,0.6592981614884509,0.900020605892132,0.6421068595740247,0.8376116274209859,0.5203629370489187,0.7871091730691436,0.42950252963357566,0.576007326007326,0.5733011515142793,0.34650077014495234,0.9384603860894606,0.7155446619670928,0.8728365922640242,0.5824573965629386,0.783899070463009,0.6257328193674809,0.7771250911078718,0.4079876702071674,0.8999739289128357,0.7009391354939262,0.7971988617351073,0.38186937231510093,0.8061135831552269,0.5372902608655228
16,3.506381197663975,0.6118616899473323,0.8173963500546074,0.35145024909588635,0.6752418457026371,0.45819785988465606,0.5593731017406481,0.0538330630557859,0.944954544318843,0.753562972785612,0.8853280364011858,0.5449227530109304,0.8724427154481786,0.47733672959015244,0.5320279262918608,0.03464787000197227,0.754145353968562,0.589469077888202,0.903728985111459,0.6060552987221735,0.7524540399557407,0.4496784154645043,0.5885682695557507,0.13571046818551813,0.5127722105699267,0.030162761853385994,0.9704011874767522,0.9161017285880152,0.9036075831492794,0.4903361351656994,0.6694764394406647,0.1390561031911142,0.5145535890077502,0.06095041398671369,0.676339111922446,0.1536490706546791,0.8048443976092707,0.42975385966569524,0.8842738056475679,0.5357695159005117,0.859696028191531,0.49496409066100605,0.7968697540952238,0.5021435010335363,0.7561188226504708,0.3908453303993215,0.5563186813186813,0.6399125827760108,0.39590932656057815,0.916642461517975,0.6546353654066108,0.8678861375058498,0.4737897578342136,0.7314504589039088,0.5248723709433339,0.6976442920918368,0.3204151639578958,0.9283339041708628,0.7901166213388309,0.7425729321935937,0.35673430961557756,0.7892061098800054,0.5023532736652915
17,3.435523228712295,0.5472864666819327,0.705247817786189,0.26200414937706845,0.559730100586789,0.269091019701173,0.5302279442291847,0.03262659272916754,0.9217017414862064,0.7038870448734244,0.8587140891215794,0.60060977935301,0.8210260041650755,0.48620663632868844,0.5668181616143657,0.04086445504358995,0.7736758777420942,0.5106898791937793,0.9649485223670607,0.6930495916378787,0.7461137543340817,0.42580942872199556,0.652951216985314,0.16307071591335,0.4839108033814825,0.028827315296723992,0.9534095180612969,0.8806477050128475,0.8741326963627932,0.5372306438415305,0.6467641824504051,0.17000357200650476,0.5321708559802873,0.04253783680484821,0.6222427395050256,0.15564491785595813,0.7981061471521296,0.442718396803455,0.8875049447810487,0.548769198830899,0.8619191277911273,0.5640104390936678,0.7771266509377301,0.48654152382093124,0.7399258522295841,0.3830876591543091,0.4933608058608059,0.5274566563117415,0.2127367963214204,0.8964666031368209,0.6324639971620613,0.8228254013469795,0.4607598632646925,0.7520150719878016,0.460350533450097,0.6872409119897958,0.31379706412557,0.9097213205261248,0.7580768218635234,0.7153369855891683,0.3525876419532028,0.7587232786983475,0.45582467402008103
18,3.385226863129941,0.573620334325624,0.8774486231418877,0.4666776569192924,0.5942228511882811,0.3875244063227271,0.6376762777488576,0.04561131355255668,0.9456170158086543,0.7666567344296769,0.9727662908592445,0.7983275114684202,0.9721283418038951,0.7282562387713865,0.6119380452865651,0.041101216396320486,0.8097476454274911,0.6638805554033536,0.9681481301221889,0.7088125836781034,0.8103619799671775,0.4975580201249684,0.6908025088698705,0.2048848490470977,0.5479771342439841,0.03249788295466455,0.9655298237733968,0.904960645751898,0.9099282283194402,0.536290013412594,0.6584494637125187,0.12950389842843865,0.5561815370892971,0.066519627917386,0.6890813804321928,0.18370182259176993,0.8457058622974718,0.5186343529092883,0.9357686834512741,0.6643036930654522,0.906794148048024,0.5738782249343595,0.7866873039038919,0.4969703580081398,0.794902917880743,0.4484072193375188,0.5210622710622711,0.5725055149742087,0.3221519791392674,0.9115439833213348,0.6721564946277064,0.9463049626630314,0.6422753703597164,0.7722467231621851,0.5766705745919437,0.744744499362245,0.30308770648518035,0.9143475327038785,0.7387352131051661,0.7233949939574615,0.3385248955368697,0.7978697443063351,0.5133717476922642
19,3.3406378520589666,0.6486527745973589,0.8459464596863614,0.3700197721291634,0.5256404008181772,0.3301142687460719,0.5397319702303085,0.04306039626034679,0.8841808161677308,0.5411350757176177,0.9145109404176488,0.6558085219583027,0.874098670069326,0.5539868437640834,0.599819666510039,0.04591479438502494,0.7758211281033525,0.5578928510412673,0.9646427570344052,0.6774760850727566,0.7452674250544902,0.44768074241610595,0.5545483881377262,0.1237366397832684,0.5065303961371619,0.03823426341209564,0.9675318871195266,0.9121228315019824,0.8535770845598393,0.4957935966072604,0.6444207293204225,0.16419118541359848,0.5155314974136234,0.06420445117290519,0.658610375128776,0.16605803577769862,0.7729447864550969,0.4301894142565451,0.8520200433946987,0.5367766926106275,0.7942243717630693,0.4095973536373661,0.7896919529261894,0.5089289729417423,0.7418710355451414,0.3844248946955157,0.5796703296703297,0.49945826814390537,0.2596711159229344,0.8558527217267912,0.49635312386527974,0.8692646550145483,0.5516434216665825,0.7532797701082017,0.5017757709637033,0.680611675473761,0.3142591669908231,0.9210106124660693,0.7767546612241617,0.7328766630807819,0.34036412463619586,0.7589077665734371,0.46297448360995436
20,3.287730426908804,0.6099534386688039,0.7275413307544164,0.25016425103322776,0.5537043624964219,0.32401198474992765,0.513018365002738,0.04862595861197058,0.8531031042643034,0.5955903219272805,0.8289484101822946,0.5526793320637613,0.8140272107772314,0.4918216118930524,0.520096707008877,0.030473800409702618,0.7176471070878014,0.4317645347637685,0.9191310406115846,0.4521422692460477,0.7244976076612432,0.43135519849186266,0.5746504277409131,0.11240942835395382,0.5392559702682481,0.03200654193150043,0.9578481405321188,0.8894026224659346,0.8400392731836152,0.44853236330637664,0.6580475106598713,0.16611302779016257,0.5100490576281703,0.10765440276788203,0.6988773804976878,0.16945837236476782,0.75194885570567,0.4241028762117517,0.836832310485735,0.439114218114353,0.7803590948459778,0.39737484806453627,0.7693064688279849,0.45230600109767455,0.718520463629662,0.34510018884092836,0.5595238095238095,0.5191904655193327,0.24073488219254047,0.8188425638870279,0.5273127751066775,0.8099354996235782,0.4792105557377031,0.7015425329149928,0.3969688019571267,0.6478361880466472,0.27532442647068256,0.910565947070581,0.7571689086026386,0.7053553206140435,0.29205418414217704,0.7304669310966005,0.4241106477442208
21,3.222354563645084,0.6002595221738799,0.77528958623392,0.28176496718436417,0.5926801468687871,0.3429435349699286,0.5550932279007895,0.03932606482108733,0.928314855994546,0.6527203673946601,0.9029817510975308,0.5751232844601109,0.8957082596834071,0.5590535963194389,0.6482141269700163,0.05572238073093352,0.824500070626718,0.6539133478858095,0.9596664656772217,0.7877781866253499,0.77696726338955,0.4090976169214119,0.6082214232214826,0.10867836556671628,0.5214657770036838,0.03330894160006168,0.9650313361920737,0.9076414897574687,0.8923459165013619,0.4797590195374893,0.6422250249669177,0.15821534710546398,0.46910778955783994,0.04795857156610282,0.6706086415186264,0.17541503614905857,0.8231290664924227,0.485268977239468,0.9205033570998411,0.6014254829448608,0.8220930063177241,0.30512928024324243,0.79503569071404,0.4821657114279615,0.7613896563823095,0.3877337890690948,0.5311355311355311,0.5511244790842162,0.26759727259910254,0.8951649348541658,0.5725381513602141,0.8698720166032513,0.5335726350694356,0.7921681377004954,0.5742897011520782,0.6832247631195336,0.2116096821054776,0.911368016399225,0.7547864753367738,0.7338290888073384,0.3062608372929354,0.7766787766526038,0.4600935364165739
22,3.167017322998449,0.6120143500496146,0.8561056133125463,0.49538548632623586,0.6054432494958063,0.4149660903957486,0.6344635238672398,0.08961312445291375,0.9367801958145794,0.716810492084566,0.9304632978862594,0.7230204645038358,0.932559877882189,0.6586867534109773,0.5710025018096847,0.04608503334111787,0.8140025914696439,0.705342711900167,0.9573556503721008,0.7453991463603153,0.7804962600134717,0.46213747600131017,0.6555518002143375,0.19976930386617425,0.5433673226023188,0.05266683363595494,0.9627754110901344,0.8844602358478993,0.9227982580805638,0.5237517320350318,0.6761723948954826,0.19981782498284092,0.6633153649267044,0.14691926993682045,0.7737991291182014,0.2564391025702407,0.8384852024340055,0.5383896543997477,0.9212772333430342,0.5814196288210933,0.883027421313715,0.5832325273674366,0.8651644095606468,0.5942519788761134,0.796400319500127,0.4580268986245971,0.49038461538461536,0.5567465661190412,0.32630560246804363,0.8980462491729331,0.6164240425338768,0.9207754288155939,0.5920788497750425,0.7816409113567722,0.6046276883843034,0.6985838420189505,0.26896810444652086,0.8992063654348502,0.6971904213406651,0.7975951526950827,0.36700156363230013,0.7932277879447461,0.49608518179725036
23,3.1112792256151245,0.5730860239676361,0.8002184298064977,0.4083352536274528,0.6396759434816659,0.463782007085647,0.6927055923922216,0.1523195142649425,0.9089712952816753,0.6590450792246045,0.9409866269992238,0.7665029884316213,0.9111142782766508,0.5683098729656448,0.6026195979325146,0.05330893427682683,0.8587702939197634,0.7517258823327595,0.8989944669318285,0.5172229291670775,0.80623774824759,0.5280608723170811,0.6500810983863543,0.20417867433104514,0.5522179565280794,0.05768879585036471,0.9790353786661239,0.938582221371944,0.8971695996560157,0.606101727562816,0.6560272430603424,0.2211996176807853,0.6009033673609412,0.053465387115960085,0.761577728923922,0.27512243799103925,0.8421501615386423,0.528926529185692,0.9080529026739481,0.6364795671370171,0.8533160919575111,0.5183421599057497,0.8300406229586055,0.5919177726180755,0.7900412583323865,0.4524103916401974,0.5231227106227107,0.5941867134865533,0.3693503809016533,0.8666447502569631,0.5777833999842903,0.881300994974261,0.48715383959309577,0.8147743600269771,0.6553779360281249,0.715059561771137,0.29518983576005187,0.9115668723385765,0.7432443609407997,0.7532625558969367,0.3675003594073027,0.7909708298216291,0.4993714446593312
24,3.0503698486051944,0.6323181436531562,0.8477004010104463,0.4861613595987878,0.6078904617384049,0.4058896309871768,0.6177015154741295,0.09801060588990168,0.9418383226907194,0.7238680534227663,0.9108533431830976,0.6763314150795032,0.8967369802021125,0.6546682493366913,0.5929441347167368,0.08125745716518237,0.7494354528105733,0.6226654986776563,0.9484836112485592,0.6634012199498031,0.7615653303212829,0.4845402862947873,0.7003956412377227,0.27511462558366506,0.5433850395428483,0.050456933964205364,0.9765370314484831,0.9378263775607107,0.9406780561399036,0.679260094323887,0.6920846278258445,0.24668188847038286,0.5883915466949866,0.13191028764359133,0.7366270088307856,0.2715875827654217,0.8411970871084405,0.563598721134999,0.9072978587914605,0.6163272111027078,0.8596764541113763,0.5215865896631039,0.8439183028104801,0.6112261554407483,0.7859684860923044,0.46677953543122286,0.5521978021978022,0.5651507083632297,0.28714516589683015,0.922778778812103,0.647628744762099,0.8739271979978431,0.5616859267318701,0.7073404099346099,0.5234525086025215,0.675406568877551,0.28263287016042454,0.9125239623962907,0.7378456570491656,0.7646994079142042,0.3483050649231926,0.7745467191851187,0.48409941973230053
25,2.9940269792837895,0.6175101137317762,0.8982872435325602,0.483310673719776,0.5929990604602311,0.3478251419673942,0.5863366629944732,0.07262030439143637,0.9067417449841699,0.5295815701376907,0.9188950248626031,0.6712336097343288,0.9033571079888354,0.5967428258118174,0.5996075841662116,0.07186562667292926,0.7770374681978669,0.6384110719242906,0.9502589429036756,0.7117369483181655,0.7334038172795032,0.40986795874625537,0.6525848730704104,0.17428897232091833,0.45079835259709905,0.025691879617959937,0.9816383389361836,0.9502967040018988,0.9113884732831107,0.5132463137174259,0.6293131185637386,0.1888407962802912,0.5406422089505933,0.0840350190861975,0.712481441716715,0.23783328113457036,0.8311837554549099,0.5047625266069392,0.9240121449173826,0.6262975707610516,0.8005000646399857,0.3205029715691513,0.7744791686158821,0.4914431236852574,0.7655212665769591,0.4119254709621784,0.5091575091575091,0.5438539647165005,0.24497952773010376,0.8764788374870478,0.4613337746407791,0.8598368160823652,0.5119944662642385,0.7405087528956397,0.5389242440986559,0.6537160623177842,0.21638878014597754,0.9132714613611151,0.7552635987131736,0.6952339997179227,0.2708781083398125,0.7546999849397679,0.4285374999903916
26,2.928859721758049,0.5602625753759255,0.8642527116142963,0.45846627105827953,0.6002575372764467,0.3522838720645049,0.5813492925389907,0.08812120368375133,0.8937673782762177,0.6238325820475006,0.8579945631716778,0.5733198388614557,0.8664571416479999,0.48579976751400983,0.5867905718603559,0.0616636346909093,0.8313961985128813,0.6836952522316783,0.9459568224199673,0.7042797907185898,0.7873031290816678,0.47710972270279006,0.6615420412336466,0.21135393874121872,0.5368979136258265,0.061944525936941205,0.9773959168204819,0.9402708383246329,0.9206071094211893,0.5930190685027812,0.6750858804681369,0.2078291854272103,0.5011824394871398,0.017500064904539966,0.6975721605200028,0.26784973107534965,0.833801685069758,0.521534509750195,0.897530346857095,0.5777214275459557,0.8172864316118057,0.29399429745124256,0.7989405302051237,0.5564057680916621,0.768255609605748,0.4170473948250094,0.45467032967032966,0.5492309874733503,0.23954201380526105,0.856400354546476,0.5617985607661323,0.8490121472317742,0.42220632999399266,0.789415887165352,0.5828312776139793,0.6934487745991254,0.25973699861424554,0.905125013418942,0.7287040083034304,0.7054145015389807,0.2774095184239883,0.7640068094248572,0.4388898153601471
27,2.8847036161601802,0.6044576749866423,0.8316429756475776,0.4387497933182269,0.6610745155375901,0.4827008336217319,0.6722521037965543,0.15122174252345097,0.9154267337228686,0.6895343491220699,0.9175801853339157,0.7183312674494927,0.9098447397221445,0.6865844732117624,0.6439689877195434,0.10408453238220228,0.8386506725304539,0.7267250173062698,0.9676099425783069,0.6996458992406007,0.8195063556134353,0.5814625000015364,0.65753026116228,0.21223105114208068,0.5818856548658214,0.07377287694877954,0.9877233852912897,0.962539954330426,0.9163041834315162,0.5906965679735031,0.7029352120421698,0.30339111724551726,0.601477993425174,0.06694384521593735,0.809503294627847,0.35624783578441105,0.8295858076611808,0.5433643199365683,0.9038252949682815,0.6071398275805244,0.8019158472359881,0.46584623756157384,0.8503840643650974,0.6426723836697945,0.8009822957751922,0.48113744883649806,0.603021978021978,0.5868142260635728,0.3638723803353066,0.8757730736100071,0.638428457116756,0.8814078173642338,0.5973392083824374,0.7938196053133155,0.6093402579451169,0.7144565415451896,0.3272994792363796,0.9169947704466335,0.7562618604194496,0.7662132227885278,0.3620514132203873,0.7907827510187829,0.5220847223794048
28,2.833260498177176,0.5514846194946951,0.8654270636197653,0.4776492936730029,0.7206827756689171,0.4788912929244054,0.6387074353728368,0.12334924249828794,0.9630308070658867,0.7909241498727381,0.921566890836029,0.6826345731408662,0.9018739395394796,0.587402548954566,0.6375046035838106,0.06638466986263702,0.7450864075261375,0.6088217042696834,0.9525272845424695,0.705428109172662,0.8584903549357721,0.6262619758430386,0.6742433223333916,0.17846546617552478,0.519262402880502,0.06916830708554099,0.986500242127352,0.9579360637542882,0.9324543739852031,0.5854058458145379,0.6385685411109181,0.20413794798680446,0.5239937145380021,0.03672885136505784,0.7742489889223381,0.37780286061823487,0.8479587373578841,0.5365644055379377,0.9052676685619774,0.5554616977516651,0.8392767726378032,0.41690269662093105,0.8121850948064206,0.5703768901899876,0.7932789248548998,0.4588904091958285,0.5311355311355311,0.6546279525414112,0.35529186330140444,0.9370646714411149,0.6923032779061861,0.8841679044499158,0.526942288252171,0.7095754039234086,0.5108179767538663,0.7329616891399416,0.3336885327151845,0.9128717046912621,0.7574869367936393,0.7271294762488143,0.3117565980312792,0.7940569717765527,0.49832678196481867
29,2.789368732440891,0.6192657049080222,0.8880959090264868,0.5248073427794733,0.6651292182099574,0.3947727503809275,0.6143342303740011,0.1352380677633426,0.9262325860302753,0.6524920544743824,0.8586183927573369,0.5816297170280875,0.8571152472078639,0.5896412164548687,0.6315796324752677,0.10417963614889987,0.7770802786071189,0.6531901506536996,0.9037008195502344,0.5534580349096598,0.7710370492752913,0.4962210606647531,0.6004694365233165,0.16231008109252668,0.6136514478147517,0.09594775425072498,0.9845151487504122,0.9602775109789446,0.9238461783642506,0.6247364600369202,0.699116896731482,0.28818397309819116,0.5794923005327876,0.026391319554119518,0.7655592179239518,0.3392030954236068,0.8280492509575231,0.4844898401535113,0.9001482508132905,0.5985126709202859,0.792683481964837,0.3442593476001793,0.8551538424484986,0.6514245778867748,0.7826480388732826,0.4410174601073277,0.48374542124542125,0.6127766481703443,0.264868760358429,0.8941836900298368,0.5542036598009086,0.8396016033532056,0.5088670804131197,0.7312019470427822,0.5387500879402907,0.6755233008381925,0.2531901585079535,0.9020015949370973,0.7327972777570344,0.7581043298866437,0.34844693633691076,0.7733418734654433,0.45730342301637805
