epoch,train_loss,train_accuracy,train_abnormal QRS_rocauc,train_abnormal QRS_prauc,train_anterior myocardial infarction_rocauc,train_anterior myocardial infarction_prauc,train_atrial fibrillation_rocauc,train_atrial fibrillation_prauc,train_atrial flutter_rocauc,train_atrial flutter_prauc,train_bundle branch block_rocauc,train_bundle branch block_prauc,train_early repolarization_rocauc,train_early repolarization_prauc,train_inferior ischaemia_rocauc,train_inferior ischaemia_prauc,train_lateral ischaemia_rocauc,train_lateral ischaemia_prauc,train_left anterior fascicular block_rocauc,train_left anterior fascicular block_prauc,train_left bundle branch block_rocauc,train_left bundle branch block_prauc,train_left ventricular hypertrophy_rocauc,train_left ventricular hypertrophy_prauc,train_low qrs voltages_rocauc,train_low qrs voltages_prauc,train_myocardial ischemia_rocauc,train_myocardial ischemia_prauc,train_nonspecific intraventricular conduction disorder_rocauc,train_nonspecific intraventricular conduction disorder_prauc,train_normal ecg_rocauc,train_normal ecg_prauc,train_premature ventricular contractions_rocauc,train_premature ventricular contractions_prauc,train_prolonged pr interval_rocauc,train_prolonged pr interval_prauc,train_prolonged qt interval_rocauc,train_prolonged qt interval_prauc,train_qwave abnormal_rocauc,train_qwave abnormal_prauc,train_right axis deviation_rocauc,train_right axis deviation_prauc,train_right bundle branch block_rocauc,train_right bundle branch block_prauc,train_s t changes_rocauc,train_s t changes_prauc,train_sinus tachycardia_rocauc,train_sinus tachycardia_prauc,train_st depression_rocauc,train_st depression_prauc,train_t wave abnormal_rocauc,train_t wave abnormal_prauc,train_ventricular ectopics_rocauc,train_ventricular ectopics_prauc,train_ventricular premature beats_rocauc,train_ventricular premature beats_prauc,train_mean_rocaucs,train_mean_praucs,valid_accuracy,valid_abnormal QRS_rocauc,valid_abnormal QRS_prauc,valid_atrial fibrillation_rocauc,valid_atrial fibrillation_prauc,valid_atrial flutter_rocauc,valid_atrial flutter_prauc,valid_lateral ischaemia_rocauc,valid_lateral ischaemia_prauc,valid_left anterior fascicular block_rocauc,valid_left anterior fascicular block_prauc,valid_left ventricular hypertrophy_rocauc,valid_left ventricular hypertrophy_prauc,valid_low qrs voltages_rocauc,valid_low qrs voltages_prauc,valid_myocardial ischemia_rocauc,valid_myocardial ischemia_prauc,valid_nonspecific intraventricular conduction disorder_rocauc,valid_nonspecific intraventricular conduction disorder_prauc,valid_normal ecg_rocauc,valid_normal ecg_prauc,valid_premature ventricular contractions_rocauc,valid_premature ventricular contractions_prauc,valid_prolonged qt interval_rocauc,valid_prolonged qt interval_prauc,valid_qwave abnormal_rocauc,valid_qwave abnormal_prauc,valid_s t changes_rocauc,valid_s t changes_prauc,valid_sinus tachycardia_rocauc,valid_sinus tachycardia_prauc,valid_st depression_rocauc,valid_st depression_prauc,valid_t wave abnormal_rocauc,valid_t wave abnormal_prauc,valid_ventricular ectopics_rocauc,valid_ventricular ectopics_prauc,valid_mean_rocaucs,valid_mean_praucs
0,4.881734262303279,0.31696106929020396,0.7232077535101351,0.1651285955907343,0.6676665895766722,0.015918055728960274,0.6955278017076366,0.057653213590456207,0.828434603758146,0.35658915919862855,0.8434175687778686,0.16320366035576628,0.775356933658794,0.018802769262437784,0.4343055435719258,0.008983021849553251,0.49811058246916023,0.015179622767525741,0.8218071168033764,0.1960268522410344,0.8957463655103772,0.12150394140841664,0.5366730822070327,0.07735109548845366,0.4209263813647577,0.016619734143340642,0.7639085791841067,0.09724603884288853,0.4180308122070908,0.021021321619626245,0.905980320718913,0.6920229937131092,0.6202620800590413,0.05656930449198919,0.5883349156381685,0.00922374732910863,0.5070944938024214,0.03544213181029804,0.5144906075018385,0.03700234975817736,0.43429420953951137,0.0150187377513297,0.7815099835088645,0.047286266150507586,0.4051005345609597,0.06861564670828794,0.9283081338462857,0.7218699583791736,0.4408568460627471,0.034274664404795915,0.5303120064977727,0.2330408512895968,0.8732107583656171,0.26376693320302796,0.6249405195031995,0.014797473157357808,0.6473264860708303,0.13185770889757711,0.3298054706715361,0.7353002786058732,0.16774411841154474,0.7036272605905398,0.05934565019039702,0.8268511957249248,0.3574085520808195,0.5035915552191101,0.015570692107469294,0.812098519650992,0.1923441660724892,0.5431742993796034,0.07649318307619385,0.40265563589777,0.01633830836559471,0.7472217983814804,0.09648585275869424,0.4111444992426336,0.01950546289555459,0.904290887763035,0.7093277023804666,0.6871018385412726,0.06554146360204983,0.47597881480173393,0.032481420639513064,0.5263368528136806,0.03382360576005204,0.40170839553449733,0.06887560577309011,0.9206527122213145,0.6965824354194191,0.41901815061835346,0.032356409906052194,0.5293544735188846,0.23026263366723648,0.8693384854701067,0.28326932559552787,0.6344136474431004,0.17520869937234249
1,4.390101696013788,0.3345258502894338,0.7864399163023905,0.255470638294074,0.747213092992312,0.01999076346437271,0.8901217112744789,0.15580260803692814,0.9453196551131698,0.7345702874522888,0.8787900016696639,0.31364358686300753,0.802632648731387,0.023606831573633365,0.7422769818533821,0.033439982082497634,0.6769554165076881,0.037218631878252174,0.866724052144998,0.23091385704738845,0.9203315998511953,0.4469471106078063,0.6601058864508165,0.1276983178664331,0.5708454353290945,0.035142878751638615,0.9265261479053519,0.37862938653565914,0.4974958696333917,0.02425418315862175,0.9343105572762553,0.7577036419022583,0.9229882503531951,0.3678085238195826,0.6151470433107369,0.008428150084421347,0.7867621273205034,0.14184642755182372,0.6153136546720445,0.05507365103723749,0.6793976929543823,0.04691385057692449,0.8598111656025517,0.052990539484903613,0.6858956752687042,0.15171093625021445,0.988869918822631,0.9320676767698488,0.62381504440075,0.06458768804612977,0.749265146864582,0.38821008677437546,0.971755475086309,0.39397894940619244,0.6926516534372285,0.02429181961267203,0.7791763637455256,0.22973855573811797,0.33576805545203847,0.7873271515750072,0.2395928583063954,0.882327031461329,0.17565031591854316,0.9423086893239985,0.7043457662614278,0.6775638423533628,0.04024279683868525,0.8487862796033576,0.21357853427175744,0.6653594499709666,0.13051585271158994,0.5681211307066301,0.03808769935082824,0.9161320615490608,0.34724921220210236,0.4953554568413966,0.02414544231912591,0.9310890976101535,0.751274620461795,0.9414295982446849,0.3789656067702087,0.7733621933381534,0.14204175930871538,0.6122080878317187,0.056879848995544616,0.686550269358084,0.15167007714161482,0.9879405130901262,0.9147357190589588,0.6173261025639486,0.06492299677600048,0.7439089243238323,0.37395908630975727,0.9611464020773811,0.4121809752209322,0.7799023489901774,0.2866688426791102
2,4.241040568088633,0.45283346997590124,0.7885168354297766,0.3075823433933985,0.731582042248774,0.017513846988740214,0.8983531889293163,0.16173042419210237,0.9770560548516053,0.8076741206591201,0.8788743280227475,0.41527271234599006,0.7733279136542485,0.01780091912029147,0.734156028783131,0.03441490778348096,0.7224517405973044,0.04864012483985786,0.8566742618188455,0.2630636468174796,0.9421753271310794,0.6523445760104765,0.6050648473937186,0.11224377320359148,0.6354830672224586,0.05415031196372046,0.8988553263552068,0.34399893540444737,0.5227650537111563,0.02970344279511723,0.9336195736120421,0.7758549261229087,0.8769002516871237,0.2132409497508836,0.7571096009815841,0.016541720627235978,0.8117855116660029,0.2041655938504221,0.6549285387826476,0.06090716441629457,0.6779870248164128,0.07992799251646805,0.8602393737347993,0.06583789039900446,0.5153401847677325,0.10809348767296402,0.9899687497151585,0.9378501874525291,0.6103351260573189,0.07168822324246521,0.6764674407614405,0.3745376002471894,0.9574786309799231,0.531365859318515,0.7562922091152146,0.04571211010775875,0.7793995641787694,0.2500688070830538,0.45352910486695985,0.7852985716114637,0.29149788712603164,0.8941150689297953,0.16439895964126672,0.9726859455841576,0.7749766381367885,0.7268710207096805,0.05099999455470845,0.8429577697346452,0.24337303909540264,0.6060025480578222,0.10893416597559968,0.6210805294252626,0.0505074427665589,0.8806138004054339,0.2865328625709065,0.5260770084932014,0.02920218987702376,0.9366941732831443,0.7860593962063692,0.9074101535900734,0.24232860960013136,0.8096503730087596,0.19036052472321388,0.6520178510849557,0.0633103978795506,0.5158879892256767,0.11292539494842559,0.987187776078902,0.9164770764170582,0.5939679897400704,0.0647960549482351,0.6765867983353929,0.3653608355957617,0.9387897643114337,0.4834241446013384,0.7707719517561039,0.29030364525913166
3,4.1366469259513945,0.39030086209038284,0.8433599224062491,0.43442643614144205,0.7029662708804127,0.02145160865257111,0.8988930153994532,0.25126344251920796,0.9565882724818309,0.7314949490086347,0.8685004482277205,0.4564140858285009,0.8514557037404856,0.07526560687695842,0.7050125501844757,0.03842485733484267,0.7591830511132973,0.07098105488972596,0.9014278347553283,0.40200722438688763,0.9239498386148197,0.5831866042953968,0.7029363709680571,0.19625346094555823,0.5532841835014701,0.04331969784301138,0.8917646459298296,0.35127219722123215,0.5172421498448927,0.030172758375797484,0.9456824005656114,0.783904968852118,0.9062679199355526,0.22812785166931135,0.6667866997562695,0.013880733097974959,0.7743092306340326,0.21823453719817223,0.6392636176023255,0.06710770747678202,0.682460390859979,0.09328882399761985,0.839019679927005,0.06719141709784279,0.5322719031794569,0.10997324786126103,0.9821588469419423,0.8894900822007652,0.5648061043381056,0.07028682688239847,0.6656710364672114,0.3729731430544323,0.9840271414734799,0.6147371601524682,0.7725087006598781,0.050701306446187686,0.7789554789033027,0.2691048811224852,0.3716180964448088,0.8399995122873116,0.4369317401443504,0.8858820455776825,0.2302704353168653,0.9529391938551106,0.7103479966726121,0.7661985686440151,0.07465974521038096,0.8939183740726124,0.3472794787368692,0.6999451327129367,0.18339040438518173,0.535096460541057,0.046085368623300545,0.8751818395895204,0.3144188170099182,0.5208404584336572,0.028539541609514198,0.9411620747633627,0.7725103661142629,0.9211901339184384,0.26047739124307134,0.7625374008336471,0.21149326809718516,0.6382000298601833,0.062189028141127145,0.5322149428831051,0.10621073461196996,0.9803383850399828,0.8601838419580957,0.54939300085266,0.05869465911738282,0.6631443840241704,0.3542655412345016,0.972699665958093,0.5955890796437868,0.7739378668804192,0.31408541321502087
4,4.059491428362592,0.38210230801719214,0.8202308177235115,0.3578178581315469,0.6834256166248893,0.017103032831748927,0.8932853428957359,0.27909775918409324,0.9557714249731117,0.7660936677581187,0.8829364620030722,0.4363193956421538,0.892055211853794,0.17077187831317345,0.6526030264532678,0.0232567381503004,0.6769591344737534,0.034704087626281514,0.8989700931396513,0.3705601101684558,0.952783364814549,0.6136133933582385,0.6559294772096322,0.1392802286305204,0.5539345532833696,0.037608333427748435,0.8788934693542665,0.285598160452147,0.4746610886684813,0.02309248870383625,0.960645190821542,0.8439346738688116,0.9271704857633316,0.2869248339120284,0.6400018321424408,0.009851986502400996,0.7633188421008128,0.21128397084259398,0.5697696614576411,0.049144183741894075,0.808721196379852,0.13593235389373973,0.8840069088903848,0.17814200362990681,0.4816097949808522,0.10476557827379449,0.9833834156647842,0.8836916068852136,0.5062218862463995,0.043931117645346254,0.6334005026588156,0.3553385512373458,0.9842733739675399,0.5714723231376201,0.791868573258101,0.05070042500747509,0.7706233610297624,0.26963076818357534,0.3666244316911381,0.8156068060305673,0.33271760778743353,0.8847734233403233,0.26495835767826753,0.9517048774528032,0.7357113104455674,0.6927591087121088,0.03754836287482798,0.8815326537069716,0.32269497521209567,0.6471048791296109,0.11888428436159504,0.5263179438966032,0.033145220875784476,0.8617931572212516,0.2505883617802808,0.472852570409076,0.022352427152192635,0.9591259660895134,0.8445010326525839,0.9360040099871378,0.3032152314748599,0.7604101763586748,0.20492352461384752,0.5668675598198293,0.04741866927107101,0.477214293827481,0.09262521536015347,0.9799996450661701,0.8563508095353303,0.49784650854610646,0.04525929995457244,0.6261119238253875,0.33446901161739095,0.9664194921819319,0.5228579297709709,0.7502469442000862,0.2983456462454903
5,3.9912482283490984,0.4164617028148369,0.8379741234027839,0.3567473508361918,0.7237348339263732,0.016917841805226312,0.9358388670950292,0.3683366618606543,0.9561248382754853,0.706086054943335,0.8897666467778192,0.4566791816961535,0.8862833712162127,0.1249461442283569,0.6818673368607957,0.03671398531311016,0.6892318357040954,0.04149131188525522,0.9050533672039096,0.41153295180222327,0.9578761010492994,0.6295325471084953,0.6665681417466722,0.15349265397929152,0.5706067603399483,0.04866710986545149,0.8856260353022448,0.2961506165992147,0.5207216832227348,0.02844865424049229,0.9621734293040374,0.8475453528122231,0.8381636887667717,0.19590506518724904,0.642226885857526,0.013251998139348872,0.7587004280952954,0.25687417288987213,0.5468600549330006,0.04572557996181809,0.7432584372740353,0.10422718779795838,0.8913152568822422,0.14503058903093766,0.4599863447548638,0.10863699030163335,0.983162592820858,0.9084789608213598,0.5317963262355535,0.05732895675153862,0.5697242960346689,0.2644885358473377,0.9791571685962495,0.513534094084068,0.8000691063164503,0.04257568130859843,0.7708839984442576,0.2659017122628665,0.3955429678765745,0.8273689729380421,0.3175597922805767,0.9232557234089855,0.33098903904503196,0.9513963581119126,0.677991778598168,0.7060443157174883,0.048366974044485304,0.8905599487264335,0.3550725886940793,0.6640461687448427,0.14065068523863525,0.5411519101669582,0.04152151066302325,0.862123157439227,0.24009207903508906,0.5170254118900894,0.028114601628172906,0.9572344190230195,0.834657563770391,0.8566910040099871,0.20956679889928823,0.7342689511440156,0.20175467503788017,0.5555706353759324,0.043343820182529184,0.4582761893944311,0.10283793483277584,0.980792700342123,0.874903558039483,0.5273543933993385,0.0635878292737351,0.5641524501758076,0.2501174464235773,0.9622994354134001,0.4720712453022171,0.7488673414123351,0.2907333289438411
6,3.938071604086116,0.481329656406052,0.8358470458460221,0.417005743250801,0.7102599868705023,0.01719213190050901,0.9176805312346785,0.2776515444460102,0.9733549108058341,0.8358601736558688,0.831670504950491,0.31739411170941456,0.8839626494016376,0.19496225913006496,0.6844529166491259,0.031178914878953155,0.7363649994331626,0.09378979426132997,0.90028787733987,0.4273016053152978,0.9357028114929506,0.6202448468150621,0.7102608553980077,0.22476326428152377,0.5755787751105652,0.05600174865589253,0.9178036766891892,0.369597511964544,0.5383213337806076,0.040436470709037095,0.966170778042954,0.8514573985448255,0.9072724596332514,0.2984691763153692,0.6476224898260574,0.00964919539908133,0.816978818716929,0.36523240847089566,0.6042102046105159,0.08981748424779241,0.8097198838608372,0.1815930605843247,0.8633128078467676,0.12510508862315056,0.5955485366153175,0.14930204952572862,0.9857674039755895,0.9402161003560224,0.5582217577253303,0.06017586135657507,0.6833338128846949,0.39113982495785893,0.9805426913158464,0.5694603820624524,0.8235215115239564,0.06945445679355028,0.7923619270955812,0.2972019484522939,0.4536036371767161,0.8290084191402844,0.4142660253559221,0.8984232038718726,0.24782395850501407,0.9683664623328058,0.8050263876369832,0.7451067300061804,0.0905369107542815,0.8798242087659063,0.36372118881119525,0.7114059491610891,0.21021071488311446,0.5423269664035738,0.05787559779455042,0.9034396492671208,0.3053135898333917,0.524975919818762,0.03074026374352331,0.9620936960164225,0.8472113749391048,0.913620715744874,0.3419817425325818,0.7922077570495157,0.302513697974816,0.6125282933792957,0.08755919222906311,0.587713214772506,0.14029265864703397,0.9838803473693026,0.9226608630642488,0.5565862558693313,0.06075783651335204,0.675219590590301,0.36946565824156563,0.966519890677194,0.5411815757939111,0.7807359594575742,0.3410632909585363
7,3.898992618185633,0.4779260142605153,0.8391433909210462,0.4577219271942707,0.6980828444341196,0.021003308094449547,0.9189988428147196,0.42348196802841487,0.9682130817873147,0.7782290767902557,0.8054780380908206,0.37588902892190235,0.9065461480998562,0.23747224584767043,0.6715843596877593,0.027063907953445893,0.7245813021658067,0.059396816202322344,0.8675874259768991,0.5091897214012682,0.9330649411770355,0.6574677991001294,0.6812085202403101,0.19559655040988422,0.5696963522010217,0.06580522431135527,0.8732196933252506,0.3661536875324454,0.5474006827124489,0.03934563954702244,0.9695952438852703,0.8713784871722008,0.9019830449268738,0.2654231418032903,0.6500243730464088,0.010802175978394103,0.7856611845803723,0.320997449209397,0.6059651500716774,0.061964692479389336,0.7589851165702205,0.20676671952497166,0.8427416441676288,0.11350667499387615,0.4437821456356097,0.12338188048568866,0.9908888250658744,0.9521076888872436,0.5161830152553551,0.06773837591994084,0.6317325958327777,0.3847562637580685,0.9752993844931553,0.6413273975619577,0.8103311448280449,0.05207725368942335,0.7736288330368027,0.30689055936291404,0.4536036371767161,0.8333564996860351,0.44314962204637487,0.9031647994655472,0.3712247048457095,0.9644129208409914,0.753914305040972,0.7382611621264815,0.06611705106195072,0.8584170903801069,0.48257995530153025,0.6739636338284282,0.1677695548977472,0.5361495949731243,0.04795854074504391,0.8440338926482669,0.2988164514254163,0.5382910456073481,0.03686162920947958,0.9630155780957734,0.846538907392584,0.9117010289778316,0.29441515446822836,0.7739950504286519,0.26589464794400786,0.6156048975834214,0.06481669324491837,0.43658243817745185,0.11607959853987233,0.9887104422087309,0.9288759902482382,0.5095780017079875,0.07172140690831466,0.6207413847028846,0.3519266724648158,0.9610066498509516,0.5887276884112863,0.7594992284050008,0.3442993652331384
8,3.8629892749468415,0.43800154033440164,0.8821401552761938,0.5059713831064149,0.7133820797912555,0.019588533050344054,0.9256356715462635,0.38895806943252986,0.9754382504273444,0.83639094188718,0.9105354437162971,0.3648540328449598,0.9112720869840855,0.24441808719043376,0.7157523133246741,0.04222263609871229,0.7631394342921622,0.10013654314203298,0.9323812355119043,0.5766296446154348,0.9758661450612568,0.7212671860191457,0.6488311777534971,0.17121739512565348,0.6124481605748984,0.0782969102009373,0.9048905420276391,0.3255399043811241,0.6055409332443156,0.053419727567491415,0.9702460567458174,0.8751244347174724,0.9278946394094817,0.3704178168794887,0.6932250703709255,0.012822563671022415,0.83159004226121,0.38465467692505706,0.6366539070697861,0.08293638294762781,0.8380604336049394,0.27712827523076816,0.9102349086686712,0.23408510543865693,0.4710113361114919,0.11435761169531108,0.9926707758734821,0.9572193259389568,0.5277295997766209,0.054520319191804806,0.6367017762532988,0.38084273764101784,0.9820640829364601,0.589498128563328,0.8275991168362447,0.06553144536916042,0.8045531620537119,0.3269648081063728,0.4221510024595662,0.875351488438161,0.4706340970851824,0.9098778450574206,0.35679833657512816,0.9717659120124937,0.8022046191762078,0.7744828065402071,0.102787126906566,0.9163551085367994,0.5270428482512205,0.6485650461477339,0.1552593046505734,0.5674870199494002,0.05942858366694401,0.8828065062392733,0.2608595921713508,0.5969986010678204,0.04117488309950362,0.9628290633383705,0.854053452276294,0.9310739956117122,0.3653402643578158,0.8049963015656705,0.31284984741912814,0.6391612881973989,0.07636769097171599,0.46520376289998056,0.10226213131620136,0.9898853841021811,0.9365165333760754,0.5205176916092197,0.05511180698203151,0.6252053718460753,0.34917017758041535,0.9703979374926406,0.542066418267495,0.780720062814031,0.35388487300721383
9,3.817359587393418,0.4583240167946138,0.8689399716067532,0.5185786058522117,0.6976088446767976,0.022755925805240225,0.9227174146778749,0.46120263314394644,0.9688907371690563,0.8189810694395662,0.8099305444811363,0.3662014785187873,0.907602422779652,0.2875164582358152,0.6594004753986068,0.028132560554001176,0.7034069368713742,0.054635560307804594,0.8711862007901562,0.49468505602325696,0.9406692498243278,0.6572248679695277,0.6725548866645045,0.19466003729628173,0.5829820194001292,0.07634607414273063,0.8680784947740785,0.3634501037330507,0.5597535793778882,0.05578181704337441,0.9711657299750744,0.8835824311960749,0.864542702745451,0.2627784016701718,0.6256196805409817,0.009608722660093721,0.8108673535982585,0.3595796659688819,0.5968949515596907,0.09978300416980432,0.7660296096367163,0.223665570446205,0.8312066432604032,0.20293757580391547,0.45343084245259807,0.13573749649103378,0.9837961904688922,0.895344911661116,0.5076043260015035,0.06339293000569139,0.6122350361312289,0.3587749334182101,0.9823978128064843,0.6334777305921945,0.8090660668027726,0.05522648562765489,0.7721695823878663,0.317927485473209,0.4299023626742193,0.8551771311520383,0.4854430524466246,0.9090928855689352,0.4014829108822602,0.9633931284328621,0.7811013454833017,0.7011430002889043,0.052347406544472126,0.8583343639041641,0.441706899362493,0.664850650194065,0.162327518051184,0.5471510204752339,0.051978424925464624,0.8378338371181815,0.28120569192118694,0.5456024412372429,0.038732365947340065,0.9634907516034436,0.8590581990145827,0.8740788378603314,0.27546543304186516,0.7910045164213816,0.3089562081149583,0.6038561132736215,0.08887721933454823,0.4448544492763029,0.12110922728673301,0.9823989977555982,0.8680939935298614,0.498653484284481,0.05802213960056557,0.6016061096884855,0.3211850945629071,0.9723634549477247,0.5949033300686606,0.7563825096379444,0.34399980333994495
10,3.7836772435016686,0.4568582147027403,0.8458660303020741,0.47507351965383815,0.6653973436101556,0.017643152522848565,0.9323511603610856,0.43124262960103993,0.9763594284097411,0.8361093525501235,0.8314643993103163,0.41730740360889346,0.9169878214284334,0.24381733905449088,0.6529802806660883,0.030458724044581505,0.7008285578801986,0.05842388413407617,0.9357468883393316,0.6097906002932475,0.9392231591978748,0.6570954857740866,0.6945997565628823,0.1942829886864979,0.6101869928547751,0.06910168398239408,0.8741016198280633,0.3270020507673476,0.6112583221970054,0.08374024860614662,0.9699058655464246,0.8724201929924295,0.8711874582905957,0.2620053765393354,0.643849941982156,0.01013531192768987,0.7864845060076052,0.24745643669105988,0.5954811353621539,0.08720734085581813,0.8930629988399441,0.30140471680794384,0.8839211014524613,0.20608725777359596,0.4753154545999283,0.13790726546614718,0.9909408670277717,0.9479323647332034,0.5491308725847351,0.07736881056774562,0.6411185332807904,0.3733471485262671,0.9820220346023429,0.6691869662596268,0.8234235485386634,0.06727217650268422,0.7886368918171703,0.32262297884900587,0.4273682641425058,0.8383518968975375,0.4306739365505924,0.9199847101644658,0.38746074740737924,0.9713697451315776,0.8057898459005898,0.7125483183212835,0.06121955395684392,0.9190756470440364,0.5629221251986858,0.6890464552580912,0.17359117249088443,0.5671121580834304,0.04208101454228689,0.8481664887726672,0.26182602699434654,0.5852911923210351,0.06874521661985367,0.961140919067522,0.8462233012933903,0.8825637436634638,0.2833091281689446,0.7634042213796159,0.21245611296231462,0.5935592696832297,0.076996258849754,0.47285178814824436,0.12297081191448775,0.9888478126925446,0.9244434224285383,0.5390866368485796,0.07637524413287247,0.6249741313496495,0.3425842978333584,0.9669434855630681,0.6130324045708223,0.7691288122438912,0.34959447898977475
11,3.766592991354747,0.5215274154679387,0.878915257285507,0.49128358420120777,0.6920324898028605,0.015066907220611473,0.9467150836328264,0.4684074124314648,0.9780132515118702,0.8447780838997706,0.884265520691549,0.49885577145122517,0.9216702948111682,0.2622236603205484,0.6795636775041365,0.041518346553907196,0.7457434164573025,0.10630209434990878,0.9398457747014146,0.5970687068817657,0.9711455492112888,0.7667606563594461,0.679733991222368,0.2026103934828919,0.648303905098442,0.09917712974861168,0.9222657543512945,0.4135630000613229,0.6703667503302654,0.09326253434485918,0.968953862344145,0.8544262751750702,0.8530701017645748,0.29614975495280405,0.7639100695658932,0.016634096735073604,0.8358034822343591,0.4288449564226765,0.636512124352667,0.09828087313658224,0.8882013161732174,0.286524419363447,0.9198052804795837,0.3039923144814345,0.483661328003931,0.14333725650759793,0.9901469281367797,0.9594361394677658,0.556050956540534,0.06611515303698323,0.6574418658918304,0.41429738854538856,0.9843517673655191,0.6046290467902599,0.8272069322533566,0.07585011964428738,0.8119887678414329,0.3499776324284042,0.48595065961094136,0.8662039492534948,0.44238255437375446,0.9283735610288946,0.39670177439065385,0.9725218056455639,0.8029241352288358,0.7489568362424894,0.10742888870915651,0.9228483787127086,0.5589235893873457,0.6717298810396993,0.17884970708878317,0.5914800866921249,0.06590180734673749,0.9006204432901683,0.2991629795676343,0.6395574693213829,0.05637176510268879,0.9623632450749064,0.8337555930382424,0.8645681697813421,0.3046420955667687,0.8071839171417433,0.3189988278007615,0.6325090553786618,0.08064437653132425,0.47291490880768483,0.12131275839767437,0.9860071774275394,0.9364644338954795,0.540871987304471,0.06735721057988807,0.6432675936116151,0.37364880953562496,0.9672121444994638,0.5673453596412004,0.7843994783474417,0.361823148121253
12,3.727261405586915,0.5498496931753248,0.8958548361351604,0.5536564269061114,0.7399409483728653,0.021846342282595792,0.9506566868380978,0.5058282039246933,0.978365700133913,0.8291020546687196,0.8666695847616732,0.4675354652797149,0.9291475789421699,0.3238659550419037,0.7200512317050884,0.040307579040753834,0.7889813910719242,0.11891147344778603,0.9615852385010922,0.644436592764584,0.9681715348065958,0.7337528158320181,0.750963937810453,0.2688157175122394,0.5985005263370415,0.09486766354425454,0.9357606946881751,0.4846683836697734,0.7706748068397997,0.12662821347116138,0.9644885252373379,0.8402337774699169,0.9011565026819518,0.30510205891548725,0.7328166136455748,0.014680092777551692,0.8507806328233595,0.49820517534857683,0.667430154153161,0.10146813094460738,0.8630445865710965,0.29035685628748115,0.898184737432793,0.24577102231190034,0.5453692008857713,0.15579566688843627,0.9891758996179276,0.9461891441760286,0.6248140212064923,0.0949601283306506,0.6417172852903948,0.38626935979841237,0.9770299373511703,0.6784564671041949,0.8221615474492616,0.07526593470276081,0.8271664570848275,0.3647028408311968,0.5110680479988075,0.8817541806122015,0.50810947720356,0.9323395667976964,0.44511343485753596,0.9723102297959141,0.7903035666463766,0.7785852468668518,0.1072408624903119,0.9459646159823507,0.5867313393426763,0.7412510314476941,0.22143893688208627,0.5563208312866316,0.06167313139467496,0.9144852764872969,0.39270065196866866,0.7274690220674067,0.09639681313655957,0.9558369815892958,0.8143053332265444,0.8980706665657865,0.31787583285686577,0.8224153858200028,0.3849069799419393,0.66042543916501,0.10701554940542239,0.5285163399753359,0.1341130137977486,0.9831816823087115,0.9102362987602516,0.6090839458179149,0.0880044034541431,0.6270368632774228,0.3398481485829492,0.9565110283408839,0.5897335785963772,0.8050865741224671,0.38309707514137176
13,3.7017301073880144,0.4807085538247497,0.8944280412573876,0.549831726844386,0.6971268593639972,0.014198975826045858,0.9429082457315224,0.5163064834112783,0.9733281601610815,0.8341741610759089,0.8450360081126511,0.3509068487295336,0.9414801485705436,0.3762313833838601,0.7072657044224442,0.04834747454388934,0.7682834943029789,0.1276575319042824,0.9264175297405836,0.5220770353119438,0.9600378512093641,0.6731900095368369,0.7504380351677413,0.2680317225674659,0.6442530818810156,0.09296382183362117,0.9154102162872927,0.4162785837284013,0.6601180459869336,0.08169173250487323,0.9764074408597876,0.8916403890536954,0.8905027594914791,0.3263935062053687,0.6535669037347946,0.014101103518484759,0.8388063848194175,0.4197818756348108,0.6632013279906086,0.13310291067021415,0.8096246135738127,0.26019337432430883,0.891702071364311,0.2901239921676929,0.6031544886069715,0.17288646841742317,0.9905886124976341,0.952845341299739,0.6129776378866553,0.08855423142699466,0.7475560653631472,0.46746943015299325,0.9740028823831932,0.618496551506437,0.8142591861088821,0.09217338435160817,0.8182548813657865,0.35554259444192965,0.4365357382425281,0.8730177832239028,0.4743082238767449,0.9155387592964346,0.44528649984563123,0.9670010730183689,0.7922203008713442,0.7639348758625986,0.11035179214157807,0.9125380651305041,0.4815915310677931,0.7307283548791297,0.20452172834074228,0.5768749988996227,0.05574407047214779,0.8924724573992411,0.3186863198595795,0.6032603068818533,0.06649457678840077,0.9678759485592785,0.868769429119133,0.8923571914958008,0.33058934996579126,0.8172190439380662,0.3160519040121516,0.6494985585402905,0.12407430152635986,0.5853401457129876,0.14919925169447057,0.985350244821155,0.9214842429013851,0.5923675434358026,0.0812533307356764,0.723137750112443,0.40887211716051125,0.9513293504465252,0.5794366494041152,0.7999912473141113,0.373829756654642
14,3.6678272957908558,0.463168616928772,0.8794299659517378,0.5414588457709512,0.7375023464050999,0.03727583753225616,0.9493262117428749,0.5034195630561896,0.9749158997014166,0.8732499433115671,0.8660585335854344,0.4897072296270342,0.9417880607028695,0.3246401995316433,0.680683381508548,0.029095684174723444,0.7562933788103565,0.07994938423689739,0.9649416004829205,0.7015826332969808,0.970227096965403,0.7597274096010775,0.6868742553528168,0.204559694839634,0.6963604020507581,0.13652503218869905,0.931792984608023,0.45018521617446244,0.674781407449739,0.1381007556254544,0.9718523089021952,0.8760820025937496,0.9307787426208964,0.38529081661743003,0.7516747447492463,0.01909680004304251,0.8862508748648357,0.48800859726087836,0.6316536446804433,0.13025852505341867,0.8161258126666798,0.33889318641397065,0.9032406253745563,0.3188715368145099,0.4740682299890002,0.15223894542108884,0.9930602040835026,0.9649447388644177,0.5609204975224507,0.07984535475143666,0.6613158449356336,0.4094857179649233,0.9874109342247155,0.7061271765538792,0.8519512763046833,0.10259353024480174,0.8196770098606235,0.3793042354653747,0.42625027949616157,0.8573564753004007,0.464781759958585,0.9279300029728214,0.45002422027736005,0.9684069926801024,0.8344133776441441,0.7467666494786924,0.07078640867583684,0.9475212553127751,0.6313820062329019,0.6721277046850647,0.17221757257058284,0.6207351576708622,0.06513313618663563,0.909974975727921,0.34040743171862614,0.6288757070103137,0.08825800647278689,0.9611844322349155,0.8404473330938402,0.9212525535295453,0.38250727380743715,0.8543004294848514,0.35930464469823503,0.6241652089506969,0.12267817575463064,0.4642548841435711,0.12267590842446852,0.9888785921105971,0.9406403436464704,0.5424317513607712,0.07484003617011481,0.640122524563951,0.3490373035911209,0.9747878926851639,0.6169765393689729,0.7917262883279454,0.3848061932384861
15,3.653734092608626,0.5343221286427666,0.8537869095099382,0.5231680273652496,0.7482470668639893,0.030766027652479978,0.9488632933265115,0.5436133052721226,0.9800583619763495,0.878141679963356,0.8833913413146874,0.45903609544471524,0.9399171543341951,0.3607119087931364,0.759392387215565,0.051190870200911634,0.8023597910299903,0.13885583358632464,0.9373245130413546,0.6505042850874602,0.9669679635967036,0.7541213690831521,0.7875235652229544,0.32369876521992963,0.6811787007378736,0.1305719949378979,0.9313815592588854,0.44210460317911193,0.700447388089465,0.11635598172713751,0.975113791499709,0.8885319589198568,0.9162273977602636,0.34239646172054367,0.7617139414935847,0.028685197829636563,0.8818722352101919,0.4654267868533239,0.6702531513884787,0.1458421260104831,0.8349793111474604,0.3132967038692241,0.9239415661414866,0.3101820066862504,0.5789335520243462,0.17873323408272995,0.9909433539993132,0.9592268207633889,0.6503803365122278,0.11083528781320537,0.6853205027141864,0.4336748107401871,0.9745602087864511,0.6174017849454089,0.8310726863729163,0.08291562999604242,0.8368945196507066,0.38074035399049144,0.4893046135499739,0.8418489188019339,0.45532448618550864,0.9313178186258723,0.4873849013375012,0.9751751357208878,0.8410727632114734,0.8020047760626373,0.11459028315290617,0.9127513680195957,0.5785107649449898,0.7682999831912228,0.2609696403146841,0.6155331606767995,0.06391852451996519,0.9134414966966031,0.3324372317819171,0.6408495556636145,0.06833698573848004,0.9660128317154373,0.8600333375022505,0.9092210789135206,0.339869487859692,0.8618293255855021,0.351631883230647,0.6648012608013223,0.12707556338333595,0.5585525653923542,0.14540265923329024,0.9872221048352525,0.9330762288040003,0.6284340235643585,0.08995655087787205,0.6611206578749309,0.3731026024485889,0.9575422820206128,0.5560110668246205,0.8108865746756923,0.38770583118620683
16,3.627561958652796,0.5243844873419294,0.9342926946282276,0.5665306799949383,0.6752737126921589,0.012056408089368954,0.9215542886077522,0.4006820267760618,0.9758329200891365,0.870437616364787,0.874675165019834,0.35063436203116227,0.9483569368504637,0.36221510978697224,0.7622145678363522,0.06897455539198115,0.7993625821457174,0.1539875470560725,0.9623151566708447,0.5936859282749836,0.9662497528068535,0.7604542322936492,0.6926686726817153,0.20795855201397084,0.6715909464394544,0.13996776775617545,0.8727751343691718,0.31363597388495995,0.6921321296629163,0.137242832484682,0.9795520942834731,0.9088605661409064,0.8966981482163687,0.4062361970268489,0.6152662991277892,0.012023989393277312,0.8499630807500935,0.49054148448068885,0.6938354224688039,0.16609324715379717,0.8660528552796741,0.3316722629736436,0.9259866730211941,0.32944051562961085,0.5864404619241738,0.16236383657751147,0.9899512308450535,0.9605024153731092,0.6493619783755196,0.09546891334574428,0.7159402921970714,0.43304639685664265,0.9609767902405923,0.5167685332684206,0.7554270911729364,0.08202173032416213,0.8235091510519758,0.3642038400275603,0.4788700901840948,0.9141080649389445,0.47057870551807174,0.904208197928049,0.3578418725309852,0.9673360459804308,0.8220968164181688,0.7885434837463932,0.11575859455220452,0.9398701514450511,0.5213248040927575,0.6724117348186179,0.16084726802229174,0.593476317826523,0.06776729652973702,0.8506280009562324,0.2077833944049606,0.6353746571978275,0.07075591439056815,0.9670189630626493,0.8649729162377823,0.8886698948324128,0.3857123886707128,0.8119564800900952,0.32637851561916653,0.6808878998237907,0.14644397024955644,0.5688715356656066,0.13479332255292586,0.9812247213630791,0.928404121080777,0.6453603396767628,0.09256098478861445,0.6869357006303117,0.3627090179365967,0.9270115334320792,0.47663916571576026,0.8013274290786031,0.3618538371839798
17,3.5973404869435366,0.5001614866711386,0.8972505247121553,0.577595984859551,0.7452347494039353,0.023745877153485084,0.9186393344156714,0.45682035800734416,0.9717793658901701,0.8542154253002556,0.8313754095568895,0.36131493660095787,0.9401411591505925,0.3891998943147928,0.7244027723689502,0.04105300884972433,0.7714229814187028,0.10532467849508409,0.9367260554469058,0.5866191328068271,0.9492446652160096,0.6974379405107947,0.7290431819019089,0.288848815315008,0.6478853865486219,0.11484254096350119,0.9060186783822695,0.41899775696398434,0.7214245421357492,0.12890362025074814,0.9691125305410717,0.850582736398904,0.9097380496885326,0.3220386168039168,0.6716291077466314,0.02966930767337754,0.8182052679832611,0.385429122235061,0.6926889659848628,0.16527760413689388,0.9334673693893112,0.3317885754212802,0.9032852464266442,0.288777095144462,0.5364547983443108,0.1626921998467082,0.9827180526075159,0.9313708625986281,0.6145865186483224,0.10920013411933263,0.7030335306761342,0.43417835444127645,0.9739302453915274,0.592315791857207,0.7931818011717303,0.059276698817044074,0.8219488996721624,0.3595376692550425,0.4537527017962287,0.8747781821728821,0.4943657177777891,0.8932134889679944,0.3944213371970193,0.9650825746066487,0.808137637211956,0.7711362713798287,0.12371485299400142,0.914158897510489,0.5334037507997984,0.7124172931756363,0.22037514463085703,0.5768259954306466,0.0718960553372584,0.8820678024486838,0.3120479040905395,0.661201295594713,0.08435234634156799,0.9569307293980167,0.8170534253356574,0.9111186350911705,0.31397216378436155,0.7828433879657611,0.2870798703972303,0.6809253320020311,0.14710493780488162,0.5138822450834036,0.13360416105492695,0.9750629314317756,0.8875590719668436,0.5965518126775888,0.09109282151178433,0.6748835685397554,0.37676524687947555,0.9618563185978917,0.5508938503417736,0.7947187090041621,0.3693244608587623
18,3.567933821547257,0.5437131996720579,0.8833318970006425,0.5473424604572465,0.7102995516680995,0.01674056927046633,0.9432834921887073,0.48367643193925347,0.9751022546354814,0.8664179360067058,0.8498894316106094,0.45727480750957167,0.945798477640758,0.4086640091155015,0.7254511984932169,0.047279823786862706,0.7678754932400063,0.1321119000109907,0.9371373954109949,0.6077395327052897,0.9650010951106611,0.757954259108518,0.7372923804039336,0.2593221949591593,0.675370603567573,0.13397246585176778,0.9271636845436643,0.4577089412950437,0.7065116513489799,0.14146694654947803,0.9808205828285936,0.913883855033527,0.8935888402876103,0.36643706684306804,0.7327050750345608,0.021777618247022727,0.8751009406170089,0.525042403621604,0.6492781518912955,0.17238497377721998,0.8194693122583073,0.2785491312986431,0.8530245611799334,0.3337100954357525,0.5602303840386815,0.17452771497346872,0.991387569954404,0.9487956258596469,0.6141323193679298,0.12055976417153005,0.718284519701379,0.4603975501896975,0.974234803565557,0.6396929214103296,0.8251429735674578,0.10688939061364187,0.8235892089317055,0.38445631074225944,0.4838637549377655,0.8612280605495302,0.4620528026588692,0.920802327024184,0.39800785361482827,0.9689235288493206,0.8219985949544196,0.7494223743540795,0.10355377917705552,0.9132628905877489,0.5353455893939707,0.719393604260261,0.20164672937906264,0.6030085195611871,0.059814622235558404,0.9036438670522565,0.32689161950644136,0.6330713995160901,0.07456848899882984,0.9677629219353989,0.8669264311626349,0.8852061738669895,0.35216365288656226,0.8363005494340731,0.35826206904630375,0.632904766977204,0.1482718726700959,0.5403764928279353,0.1377731049598493,0.9868586858685868,0.9098792542750519,0.5857860227133659,0.11176971091966852,0.6883943950656676,0.38806996681117917,0.9482011936265549,0.5683936011255172,0.7969193207816908,0.379188319098661
19,3.539582232967412,0.5592159201013639,0.8649943481889353,0.5211877749432797,0.6890519590019508,0.01565880614011685,0.9378197479018844,0.5393242179616288,0.9705128737773787,0.8477174255797836,0.8126803372304648,0.23416320107005517,0.9385149194598955,0.38225753533421436,0.6276913306337539,0.03159928386811579,0.6907529104766595,0.06071913552776749,0.9442258118311546,0.6325785348561649,0.9573062061473356,0.7093942070087328,0.7074490436906028,0.2444481388331693,0.665214771493348,0.15465306123601275,0.9248772885848624,0.4735561736480344,0.6968555808573897,0.14046625179685707,0.9787529215066524,0.9075994194817498,0.9023480758241731,0.3018729856738454,0.6697221250631534,0.033001093404038916,0.820769261195916,0.47050891203801815,0.617659646576582,0.12845709990922025,0.8623281018097746,0.29784045262914194,0.914052392162139,0.3518679606472661,0.476902419277848,0.15062564138964535,0.986668580127498,0.94561447044688,0.5664857122191442,0.08423278514880117,0.65651676929313,0.4040992080778281,0.9734811217149429,0.6105589652031456,0.812277015704847,0.06969041068460216,0.8024411582130154,0.3608775241680783,0.49839755534024,0.8359957568996104,0.4178208308769964,0.9024495211647056,0.44912087252873445,0.9659552253869772,0.804984212733594,0.678567144638632,0.06024373457993566,0.9176684545245317,0.5336964104895615,0.6847977980501818,0.17610930566995636,0.5945846178404318,0.06177529623804845,0.8957835370091582,0.3416127858353867,0.6121752487631154,0.07744927936064595,0.9652652105856793,0.857050777740117,0.9010308693349475,0.29148245080420027,0.7746991273694136,0.2944500129726555,0.6037152613343566,0.09867766735935493,0.45811287077302526,0.1051103450774407,0.9812978710070638,0.9093106361876577,0.546173851251696,0.07303619684936316,0.6282095378705324,0.3386932993397038,0.9551200133864661,0.5592697342130541,0.7723112176216957,0.3583274360475782
20,3.5101262712261847,0.49641002708007254,0.8732856576831961,0.4663459851615652,0.7218181450487999,0.023921265633789678,0.9206497479957286,0.42370687980615435,0.9754373301341456,0.8638077981212825,0.8830094421365703,0.4153473384590025,0.9544835987654621,0.4697349975303499,0.7292046861386093,0.05382667799925865,0.7885566286865259,0.14508964920467382,0.9562433739156164,0.6538317804335033,0.9733408301676317,0.7856070006830724,0.7075130146149224,0.23973466091989198,0.7244796024441571,0.18732990545294595,0.9211958969418902,0.3758106202389931,0.709942901506054,0.10449757477354218,0.9814574061644107,0.9206921934203474,0.9157780116323334,0.36698100736392414,0.7116289967076955,0.023324344574766336,0.8771021564275865,0.5791697115176988,0.6875086490231603,0.15654864885387929,0.9260302222530664,0.4013282324922017,0.9348472828947462,0.37412959664351175,0.5801257114023655,0.1784380914290603,0.9925099408060316,0.9629053760269551,0.6638093143802586,0.09464445980038474,0.7122831692451946,0.4439884441525944,0.9796845439746578,0.6429000058180752,0.8351953646376908,0.11936351560012626,0.8384119120640188,0.38788910230042783,0.43720652903033463,0.8428483030646645,0.364636664112999,0.8882162743961479,0.3312054206959069,0.9678590627556387,0.8145582960501226,0.7702637074094797,0.11423176012694422,0.9308406661115625,0.5451485004053789,0.6818122822499313,0.1766521273328106,0.6310313146838454,0.06761794595029655,0.8965066966638712,0.27081712500550925,0.6389427684136717,0.056906238262398136,0.9633466044733271,0.8623250272017715,0.8975213739880457,0.34189753186205596,0.8177971325472215,0.36403526705884803,0.6549700735082422,0.10815842346728491,0.5514897449211398,0.12766172614999027,0.9870383711199217,0.9232903783916303,0.6456935506298912,0.08159777438822788,0.6809251152146422,0.3576441644765076,0.9617549904869327,0.5817769603168541,0.8004921129243432,0.36056451840308534
21,3.485672099341938,0.5705199870810663,0.9047578708361294,0.5744959756787099,0.7118662243152905,0.02135514455226801,0.9442054020587515,0.5745750953278322,0.9769263556525445,0.8741039544137592,0.8112610396634692,0.34769149404858346,0.9532922660636315,0.44009226417614744,0.7490348183392861,0.04765772984059531,0.7886749940979828,0.1286044424182613,0.9364497065794481,0.6663926744215649,0.9335430766109232,0.6497321760025624,0.7360954262831686,0.3440195072885138,0.7244804475883809,0.1915807238256839,0.8986330714715905,0.45305326452038763,0.7625557818030034,0.21426767724890058,0.982172960687845,0.9213187615467785,0.9215661821907708,0.41218612795767273,0.7405358739041845,0.025049944046116802,0.8928118880446247,0.61792280007497,0.7042417722446634,0.20075262843130923,0.954161557372097,0.4555362886358593,0.921348570776154,0.409919298662541,0.5973226585187759,0.19470471911255627,0.993532407392974,0.9667985964280769,0.6598738356416708,0.1387667157974263,0.7136853477629844,0.45294778884219455,0.9859663242083135,0.7157728484572777,0.853345086673957,0.17145096458959327,0.842679294325282,0.4152129483831905,0.4993664753670716,0.8776498344825062,0.4468923343197686,0.9205381570908705,0.4819985938333353,0.9683219745662776,0.8310392775708969,0.7667626633314681,0.09982183918260602,0.901605533878935,0.5738417724232039,0.7115165910271691,0.24011282430054032,0.6231785821389105,0.06197108085999992,0.8618062000019294,0.302535032831626,0.6486169168241344,0.09076810914923153,0.9646653120597047,0.858456256958832,0.9000253461451163,0.3777495832417785,0.8379333998607256,0.38326237761101833,0.6811931325000716,0.14889108894867445,0.5810618144349972,0.14590758150711106,0.9854960172542208,0.9261116192483245,0.6278164537017678,0.10645718626213198,0.6742070177051532,0.35651482173486315,0.9707592481268245,0.6197397135934627,0.8057307886183769,0.3917817274209669
22,3.4610739244454805,0.5416759832053862,0.9011049439946882,0.5543931176403952,0.7211531660653301,0.026855141528214124,0.9600598896044196,0.6112992202691732,0.9830504452650738,0.8949146858827379,0.8783948201280687,0.39998027552119075,0.9513224179350334,0.4604778398077085,0.7848711456708767,0.05422739419566252,0.8160713248108611,0.1462659864326002,0.9293710308774114,0.6236370342103301,0.9689910025982508,0.7751436220549094,0.7785056129537179,0.3845455360807798,0.6837726361707328,0.16872167672162716,0.9359356397393148,0.5447552279109521,0.7409641674306388,0.19759219236904565,0.9785559340901132,0.8962563255625032,0.9416143254914053,0.4525853639553603,0.8052322656939657,0.03304594192848519,0.8937532273766092,0.5675146322800901,0.6910391380868419,0.21157172373685185,0.8447679684866465,0.3430524214338909,0.9468561196988294,0.4793789644417352,0.6499634832448615,0.215761311761222,0.9915594684753987,0.950875145554012,0.6781881616988128,0.16122416131558728,0.777098930803161,0.517439276254669,0.9854871609467825,0.6957838926385856,0.8523874943346957,0.1719345203938618,0.854447108210094,0.4273789863660067,0.47342923157188643,0.876446403423743,0.40402980683949735,0.9379306179138507,0.5038258958504028,0.9752011112645682,0.8504575420568075,0.8021358800791378,0.1135695066503957,0.9005969785123455,0.5020434580305729,0.7466941146358608,0.2646772504671484,0.5976416126894923,0.06280137228615484,0.9171272435816119,0.3725928231801018,0.6295619247069284,0.09675139014056222,0.9598797314798447,0.8337742291016678,0.9172800181584322,0.42641765469667625,0.8361114628140753,0.37071056538838654,0.672658168064919,0.15424401790365241,0.6135896426948789,0.16187561653738058,0.9850200177134165,0.9122792568914097,0.6556844604816979,0.11717107567825014,0.7298271847968049,0.4052988594817621,0.9624642872636454,0.6392381322934346,0.8175472700152919,0.3995421363041258
23,3.428866230080028,0.5757869369705101,0.893089105337931,0.5930319206507654,0.7244095615100374,0.022244535684233478,0.926578414456797,0.49670857253987405,0.9826400566403475,0.9064592299131335,0.8585693520496686,0.29418104800108547,0.9486280607902204,0.43864587010157413,0.72475811852907,0.04495374612856393,0.7630014022623924,0.09648663240922051,0.9254558489824098,0.4972590454800518,0.955375441152938,0.6746527600621873,0.72586543949469,0.2592923479245145,0.7757037468999641,0.24176687376365796,0.9176592287228235,0.4499590135177961,0.7421364867626121,0.1838329710543466,0.9842342241789866,0.9270616042614275,0.898379228834483,0.404796410684757,0.7379930267548315,0.04665061498489355,0.8995533896939214,0.5688594029851811,0.7037457870327881,0.1862160123370599,0.8964594690182331,0.37302335659669866,0.950530028221113,0.43227167748771883,0.6168573514269531,0.19831996744605268,0.9869429234319531,0.9529288335730313,0.7041723731360162,0.13214200872000886,0.7228329556001192,0.4560984327830128,0.9704677404259627,0.5958935935178077,0.8175576613624171,0.1133354888501521,0.842725793433692,0.3921137767206965,0.5021241708280539,0.8565908273436119,0.44717506208503804,0.8975721109324507,0.41611033404952563,0.9743158711103084,0.8615252316945375,0.7353315267675271,0.06413636925328725,0.8992019169628366,0.4128939983890643,0.700286035726292,0.17266546173677844,0.6904447930439723,0.07507728145038034,0.8892106902203801,0.3019172288446406,0.6364189495201874,0.07173566512559025,0.9647160108877687,0.8526013289024867,0.8803465234168116,0.3875462098854664,0.8393288507865003,0.35880467306956954,0.6746662440038999,0.12803522784940927,0.5739951807619913,0.138956370360914,0.9785267251309233,0.9185764679913561,0.6657285573708064,0.10397837234602386,0.6805981516984527,0.3665571205075578,0.9366931710430906,0.5072883598926488,0.804109563151545,0.3658655979685708
24,3.4022361320198398,0.608059427094979,0.8806868553180713,0.5790995778916876,0.7239840454824054,0.024610386397062544,0.9551302021733301,0.5497494505313726,0.9750240089995797,0.8759806498293549,0.7975091196541091,0.36211772815789545,0.9592102095801491,0.49607741327352245,0.7709473201542179,0.062495760461344134,0.7682937948974877,0.1210989563098231,0.9367794826990177,0.6064695704601978,0.9247837992570399,0.6571651046356995,0.7327646692895919,0.3058709957692558,0.7661656369992872,0.25826006415936964,0.9165527846494597,0.45625559689435363,0.7368944450939877,0.21417333088433899,0.9845835278028082,0.9317168932034263,0.8800325743640883,0.3558153098341178,0.7848457391584358,0.1080499929020026,0.8595943133370294,0.53542852384774,0.7012557815237678,0.2122783178744886,0.8967840098227426,0.46295934982267645,0.9055795442647943,0.460530868228121,0.5816340217104714,0.20038044090073967,0.9899570912923463,0.96340006494697,0.6934244302561148,0.15316007625575495,0.6998491860406653,0.45454756028698795,0.982495264337366,0.7077172049220846,0.8411693187913464,0.11351997364760182,0.8387381917388782,0.41588626527140704,0.5215025713646866,0.8489356280215326,0.43883281978428107,0.9156089862897261,0.42035538162036323,0.9676932495458263,0.8289054934164048,0.7451107527235624,0.09657204532858149,0.9036280361543342,0.496760195333687,0.6989423840958406,0.20297754470134247,0.6652187168603036,0.07075030116318287,0.8861731516682433,0.2955655779887907,0.6268604792091005,0.08846894139414346,0.9640241220198774,0.8559643519333131,0.8675312098055534,0.30618205811738897,0.8028913593245526,0.3134551451422241,0.6797724209122243,0.13421235016370317,0.5390143279029013,0.13561326547383062,0.9830077092737,0.9288253774153438,0.6546629025583465,0.12612831688712717,0.6567026844808829,0.35590412324811815,0.9571915070309935,0.56385392513292,0.7979427571043057,0.369962623013597
25,3.3656834236379205,0.49402499316787163,0.8819919165144312,0.5144481026189204,0.7025203242757776,0.01769336529300049,0.939396765769645,0.579895677282399,0.9501187592506483,0.8145353945002384,0.8165696235261886,0.29283406563909,0.9567468285302344,0.4140210285320984,0.6506462445977013,0.043116045610580744,0.6674507918048714,0.05938526959822203,0.9480981971573769,0.6424935891228221,0.9549268059592544,0.7201865575657317,0.706824519862586,0.21688218517857077,0.7219837193920845,0.23151549594648563,0.9096706255817811,0.355355433121102,0.7054056992503056,0.1340199146516131,0.9825173353909289,0.9236299288943096,0.8835428640803805,0.3271995583415319,0.7347956050789208,0.05148663477962283,0.8567036593027555,0.5415085163595963,0.6391912813685303,0.14660128798245617,0.8418064904629529,0.39694385649215763,0.8951326515481343,0.35690584874750614,0.4922439940156319,0.15918029022541036,0.9880783449344805,0.9525903804568077,0.5946523131084231,0.06871990143749795,0.653670399603228,0.41492781962332126,0.979907786267503,0.6868082483560994,0.8034697857371549,0.09602342776521529,0.8095579011989598,0.37625584533786693,0.4161884176790639,0.8460917753351502,0.37249138035884394,0.8944551968156971,0.4487173793030724,0.9398578516259948,0.7638938499084199,0.6435272648813116,0.04066412951043505,0.9150545674618406,0.5444013059191046,0.6767104840927844,0.1431864608980245,0.6151707697535331,0.06378892923655212,0.8763858847811475,0.24011565679500108,0.6212971354520622,0.06032197837323177,0.9588143791804403,0.8401753126875743,0.8589138987667397,0.3106482925000893,0.7851628227383741,0.3102372064859255,0.6126586643086533,0.09608346334506643,0.45420218894009223,0.09970410651761749,0.9788469974539044,0.9087026462231388,0.5711465824744211,0.06268882267499926,0.6102303076025891,0.30401748881435753,0.9497654269724897,0.5498254255314997,0.7671273443687348,0.3422035463934974
26,3.338935521892197,0.5684330824078905,0.866100928885152,0.5513297289412368,0.736089629045021,0.024878891133901793,0.9647409298137382,0.6030841243325725,0.9763650152700611,0.8514488543202966,0.824361697078005,0.33496723431200315,0.9562551434176768,0.574671365401854,0.7123298091029248,0.04528281551990407,0.7347046329920525,0.07693347497543283,0.9086766600697098,0.5828370192700522,0.9450024191912099,0.6998305435240824,0.7846992040196025,0.3312670625174826,0.6934029450459054,0.22963258251610336,0.9144365820992343,0.37474189800972246,0.760694480715668,0.20982826168184648,0.9878649413373927,0.9452896539277248,0.8471794460689922,0.2968470234721293,0.7765012741717884,0.1244602681345644,0.8544688423500489,0.48117468024808474,0.6679851943056658,0.18118154983599413,0.8398952886655152,0.37634027016705673,0.8931735889798851,0.3770043258926583,0.5163711793601751,0.18550162846133464,0.986233598095451,0.9469254768309942,0.698332844439874,0.10684361049426364,0.6844727869186694,0.4378381741238777,0.9608315871053382,0.673336175092317,0.8541500380458962,0.12701651184426999,0.8276044698737279,0.39816641499932437,0.4828203026011776,0.829161195139943,0.3999028390442011,0.9261395785143243,0.44874621013134536,0.9691576805804922,0.8020036743428373,0.708885451294035,0.05065308674317939,0.872495333788694,0.47563277924601166,0.7414376948290089,0.19892738035071722,0.5923424890593154,0.052942135362399854,0.8858890691849833,0.25917213591949095,0.6353504911473746,0.05707501005783129,0.9642767136134459,0.8567745770333223,0.8234792312930317,0.27608298802469605,0.78645165213393,0.26686055618988946,0.6427201258063427,0.12273730849467883,0.48359966249107544,0.10750721096315166,0.9779039271764516,0.9034124351683813,0.6618481545098439,0.08404961785909439,0.6430576023636916,0.3299533768649866,0.9329646374188911,0.5648043875279151,0.7820644827969375,0.3476243171846739
27,3.299848287387687,0.562172368388363,0.8409460055369984,0.5158829248470167,0.7026025651263532,0.027871457467670096,0.923709727940428,0.567946376130247,0.9583610945251197,0.8058792266269049,0.8185875226560064,0.40043498126244725,0.951547178673196,0.5741764019683421,0.6570359705678507,0.03872084901862208,0.6848537782865093,0.05896169613211941,0.9220146762500206,0.6322168953463195,0.939470566735632,0.6959237213361552,0.7306763228964515,0.30284959186553245,0.6808285919177293,0.17778090327429516,0.8401216892709094,0.3365933542770587,0.7655724791924587,0.22712429184735183,0.9866930939199409,0.9410888707591072,0.9273668834300687,0.30765127095693395,0.7555018682300949,0.09777227793483509,0.8720543640224194,0.4991639872057994,0.6356844073456994,0.14635092187847332,0.8405643493979816,0.19602236166452813,0.886231299426624,0.39853343184403767,0.5164104527397897,0.19319793227653112,0.9875174674052631,0.9444656596872006,0.601438422692753,0.10834369030560244,0.7133369413393493,0.43691181256605793,0.9789318894211705,0.672568028464625,0.8491344246753624,0.1155030220671197,0.8135997790230436,0.38592355329670125,0.47872102556458224,0.8041940852643708,0.37875167736514975,0.884203147406459,0.44152049308591573,0.94770119094415,0.7488405543669783,0.6613383946432032,0.045692936588682655,0.8841547965686877,0.5246380606741129,0.6924507579230463,0.1890497695126321,0.5936570731372373,0.054019580929848265,0.791915298395595,0.2101298571271437,0.6275000821891056,0.08724482778935756,0.9595941275031962,0.8346024391185678,0.9029261557085572,0.2802347874008387,0.7940888357262093,0.27326817038391255,0.6062156238917402,0.08787949993768306,0.47824402057506327,0.10643300683798704,0.9804396520982968,0.8987566588340953,0.5662597108025706,0.08214276449178232,0.6620187371952435,0.3405657491586299,0.9581753503101819,0.5989516021084912,0.7663931689046062,0.34348457976176716
28,3.2693585487381216,0.6012769869071576,0.9108080911961377,0.6419015930614554,0.7243302244978174,0.02973510897716382,0.9379339218246044,0.5218694568820611,0.9519851375311605,0.8365501718613495,0.8134262314603813,0.3785347112260905,0.9655641519725274,0.623849695929838,0.7407373428219953,0.05572869229241528,0.7600696539609747,0.1196956011580613,0.9070292855668337,0.5686088923150304,0.9519294443441093,0.7444558578693717,0.743478982608268,0.34693581136694646,0.7177932439170744,0.2696087275098008,0.8987240118108323,0.38564859783124655,0.7475075887291255,0.2522791962244385,0.9917056648004319,0.9621033558324613,0.8861987119618536,0.3682470559038169,0.7671267009776979,0.07380963026035339,0.8792232017200614,0.6300204049172513,0.7179059689067473,0.2645699529727807,0.8960142665911361,0.407690224181641,0.9110220986426674,0.4809388459556444,0.5561336401143707,0.20867524086772418,0.9822443440257957,0.9496071483414898,0.6944923747543204,0.1569238114016674,0.7224718385934927,0.5128386976903007,0.9749103399864639,0.6449402106483142,0.8384129247938661,0.1736778581991013,0.8366362736337313,0.4299794278399191,0.5048818662890363,0.8682312489712312,0.4696457687805644,0.8976086799108226,0.389052837855077,0.9477204734029557,0.7909586356083382,0.750575065734859,0.07642254874465586,0.8678444546808864,0.43700943763678823,0.6876932054338193,0.1883320980678092,0.6071488725387494,0.06723490928352692,0.8568435112880801,0.2452344517525488,0.6097330056236976,0.07238861145179658,0.9640312729672113,0.8520831606438718,0.8429166981917228,0.3183697689209447,0.7921769367634368,0.33652259658484096,0.6767534622625891,0.1467635903300624,0.5024343642500162,0.11984974340888091,0.9751351660119801,0.9077791838228179,0.6424225478358211,0.10224590935421966,0.6657056057455445,0.37646913091789996,0.9382205296330498,0.5322727647995306,0.7829552834025819,0.3571463971091208
29,3.2280152446571924,0.5019005738987852,0.9322480737612291,0.6903054951945281,0.7059785883404668,0.023154014325004208,0.9291279496675352,0.4168065491764149,0.9728827885582284,0.8989062624268804,0.8553803669180046,0.2938255435532124,0.9471106738337008,0.3880323882906345,0.7375092495553033,0.08455976879300965,0.7458609691985812,0.14005692562945588,0.9453688792349287,0.6388430830859173,0.9683578622685239,0.7897035305492682,0.7384285141014538,0.3114277787350357,0.7927527474230144,0.30956939693958485,0.923626888433597,0.5090737890988234,0.7522448897640117,0.18527358452670312,0.9891018552920053,0.9503579023131277,0.9320153991834706,0.4729972976095317,0.7517729031684961,0.10794576760002378,0.8617391514452647,0.5781929465961251,0.7183098057555969,0.2571208517097032,0.8460212026672302,0.3642156620810351,0.9344813725021094,0.5011566337842875,0.6296377987343811,0.2499620091249691,0.9907619240706406,0.9672762043883357,0.6619723805716675,0.14973099572181356,0.7278923930250689,0.5325345998835812,0.9853899750961922,0.7463385626558771,0.8367472629823826,0.19080080440729688,0.8449156246501143,0.4351173462296363,0.4085115897741671,0.8833272978888138,0.4676062923642186,0.8987534162885142,0.3133193140035962,0.9609560487426562,0.852158044189113,0.7026756556115078,0.0729831771557728,0.9212187850766154,0.5037617075715104,0.6811952759695609,0.16790521641546666,0.6394709151207099,0.06203478347275995,0.880401453215903,0.2895770950152303,0.6071787644941101,0.052597506376973066,0.9562145238378564,0.8280546496691524,0.8942350760384353,0.4298916078321319,0.7560401513359344,0.29196627573939005,0.6662104218884555,0.12529438950383198,0.5584704192899332,0.14868884306525762,0.9797744284594816,0.9178225603290213,0.6094967705964718,0.10027064653219683,0.6562931125394451,0.37210065204154125,0.9575233798347762,0.5970517586396663,0.7894131053460656,0.36628247332871283
