epoch,train_loss,train_accuracy,train_1st degree av block_rocauc,train_1st degree av block_prauc,train_anterior myocardial infarction_rocauc,train_anterior myocardial infarction_prauc,train_atrial fibrillation_rocauc,train_atrial fibrillation_prauc,train_bundle branch block_rocauc,train_bundle branch block_prauc,train_early repolarization_rocauc,train_early repolarization_prauc,train_incomplete right bundle branch block_rocauc,train_incomplete right bundle branch block_prauc,train_inferior ischaemia_rocauc,train_inferior ischaemia_prauc,train_left atrial enlargement_rocauc,train_left atrial enlargement_prauc,train_left bundle branch block_rocauc,train_left bundle branch block_prauc,train_low qrs voltages_rocauc,train_low qrs voltages_prauc,train_nonspecific intraventricular conduction disorder_rocauc,train_nonspecific intraventricular conduction disorder_prauc,train_nonspecific st t abnormality_rocauc,train_nonspecific st t abnormality_prauc,train_normal ecg_rocauc,train_normal ecg_prauc,train_pacing rhythm_rocauc,train_pacing rhythm_prauc,train_premature atrial contraction_rocauc,train_premature atrial contraction_prauc,train_premature ventricular contractions_rocauc,train_premature ventricular contractions_prauc,train_prolonged pr interval_rocauc,train_prolonged pr interval_prauc,train_prolonged qt interval_rocauc,train_prolonged qt interval_prauc,train_qwave abnormal_rocauc,train_qwave abnormal_prauc,train_right bundle branch block_rocauc,train_right bundle branch block_prauc,train_s t changes_rocauc,train_s t changes_prauc,train_sinus arrhythmia_rocauc,train_sinus arrhythmia_prauc,train_st depression_rocauc,train_st depression_prauc,train_st interval abnormal_rocauc,train_st interval abnormal_prauc,train_t wave abnormal_rocauc,train_t wave abnormal_prauc,train_t wave inversion_rocauc,train_t wave inversion_prauc,train_mean_rocaucs,train_mean_praucs,valid_accuracy,valid_1st degree av block_rocauc,valid_1st degree av block_prauc,valid_atrial fibrillation_rocauc,valid_atrial fibrillation_prauc,valid_incomplete right bundle branch block_rocauc,valid_incomplete right bundle branch block_prauc,valid_left atrial enlargement_rocauc,valid_left atrial enlargement_prauc,valid_low qrs voltages_rocauc,valid_low qrs voltages_prauc,valid_nonspecific intraventricular conduction disorder_rocauc,valid_nonspecific intraventricular conduction disorder_prauc,valid_nonspecific st t abnormality_rocauc,valid_nonspecific st t abnormality_prauc,valid_normal ecg_rocauc,valid_normal ecg_prauc,valid_pacing rhythm_rocauc,valid_pacing rhythm_prauc,valid_premature atrial contraction_rocauc,valid_premature atrial contraction_prauc,valid_premature ventricular contractions_rocauc,valid_premature ventricular contractions_prauc,valid_prolonged qt interval_rocauc,valid_prolonged qt interval_prauc,valid_qwave abnormal_rocauc,valid_qwave abnormal_prauc,valid_s t changes_rocauc,valid_s t changes_prauc,valid_sinus arrhythmia_rocauc,valid_sinus arrhythmia_prauc,valid_st depression_rocauc,valid_st depression_prauc,valid_st interval abnormal_rocauc,valid_st interval abnormal_prauc,valid_t wave abnormal_rocauc,valid_t wave abnormal_prauc,valid_t wave inversion_rocauc,valid_t wave inversion_prauc,valid_mean_rocaucs,valid_mean_praucs
0,5.108136521224244,0.23219298899406227,0.8052956048298265,0.15255479171124192,0.7153267043370065,0.012390149617146821,0.8898971358344142,0.1878132835457181,0.8583868475467588,0.3410153183967963,0.5521677351590926,0.006809367946019254,0.7724169883500641,0.10039100505765766,0.6696932417072403,0.02483225447050654,0.7389641704019965,0.05640084122007187,0.964200817068209,0.517458392894313,0.6230986716944672,0.037200627291566965,0.7332991059395504,0.04918232204197487,0.6971047518646083,0.06973462235317096,0.9266253332406168,0.7411068288111125,0.948513933371657,0.7030000455697123,0.7559946949667212,0.09103865620268638,0.9377888760188686,0.2783652073280369,0.6552733250761589,0.009238463938026735,0.6071925563477364,0.05257814298669992,0.6183043730247111,0.03848383717917446,0.8381721081326942,0.135434875963277,0.8544722930103225,0.3851579457816952,0.8272696239376,0.4132938034948872,0.7432913896018221,0.10013797050419446,0.5722324167038038,0.031880689711106205,0.8100069287258278,0.4311140265162368,0.7804342664300593,0.1751506700036553,0.765208611281609,0.197760159251411,0.2335097264664232,0.8047508916906058,0.1655795446305194,0.8847030694844314,0.18275728288712037,0.7710184153197608,0.10574515100547471,0.6925249601077458,0.05055571440639167,0.6065181439153255,0.03310676850478789,0.716036731997486,0.05427084544478733,0.6729880092368874,0.06542589348354269,0.9266617251517829,0.7294022911509513,0.9559912740355349,0.6898770401203568,0.7531596286313268,0.0884826926206041,0.9280338434750199,0.2628641133485869,0.6098512504999447,0.047268311006632834,0.609765926448011,0.03962507675045517,0.8522851196519565,0.3742889667040247,0.8017079631337768,0.3588402987464368,0.727452325060832,0.11237327475986347,0.5649276894334935,0.03522214347214446,0.8143232695684881,0.4480086632654077,0.7722856514050133,0.18048074311156206,0.7613150467498645,0.21179867449577108
1,4.773893549570768,0.29368214454299274,0.8887274323100433,0.26082322030697447,0.7075388050583089,0.012321845862893041,0.8927390627792239,0.23193406059263108,0.9101794665002982,0.4650556152792522,0.6949130007808332,0.011490600772680876,0.8771546128884914,0.2671815694232732,0.7466800336296836,0.028860139165084654,0.7796947542435579,0.06610061758707075,0.9757643801220991,0.6629072910784277,0.6576819419249564,0.05074770683117395,0.7483198907104435,0.05790099655299893,0.725805818563662,0.09888135962127644,0.935490934058529,0.7821987777922019,0.9634543549770513,0.7777116105579025,0.8040689160279331,0.21765666548969279,0.9390006313630543,0.35209822428151355,0.7335003350071946,0.013255541322535619,0.7060107242691642,0.06568091807282482,0.7028768621841012,0.057739054635925456,0.8971932128021505,0.19154261652810928,0.8793475083257666,0.43922480053756735,0.8799872961698684,0.5444966938445491,0.7439896071615218,0.10661556501488703,0.5823439959916727,0.03308011622116065,0.8243639422014823,0.43232496630717765,0.800569177177077,0.18235173906743624,0.8075921806626218,0.2465454735672008,0.2853842140567936,0.883860920276569,0.28049599005757003,0.8792676246380629,0.2368095762075277,0.8769245607228939,0.2500959006268492,0.7655430348367955,0.060657948111193426,0.6341474666411343,0.0465916663268431,0.7389405158832203,0.0528461984309122,0.7121436847654975,0.10404561855379432,0.9335835979496412,0.7720019437472078,0.971509179406525,0.7700940950128268,0.8082698697927808,0.2028174822271089,0.9303417832829598,0.3413016588359847,0.6997651323683337,0.06444854787724819,0.7135786561858102,0.05950341092249409,0.8790958960050096,0.41420946526656444,0.8555570347689099,0.4870837933589445,0.7283011709656166,0.11474299605231512,0.5894235930105698,0.04144668115787984,0.8299970115052637,0.44951574076723744,0.795237407689028,0.18336911522194754,0.8013414810891907,0.2595830436190763
2,4.612353395975609,0.3689100891903307,0.9240702181674494,0.5090260189625928,0.7752556302766345,0.020659388537306637,0.9258257088305589,0.34533521068754786,0.8927360386021951,0.4409398027366841,0.8181538186067203,0.03861104525961687,0.8818126253098579,0.29169335904649174,0.7212170626259585,0.0205607429738746,0.8327901664570677,0.08096732549960534,0.9701513502016589,0.6587949167642227,0.7270880057444429,0.0791493867126275,0.7484685566512662,0.10060762341919433,0.7465610728315023,0.13796172412520913,0.9528296385373114,0.8048939955106814,0.9739717066783462,0.8434497577550432,0.8911214247495177,0.3781683052135005,0.9662013251435242,0.48199696404252135,0.8764788853626099,0.045165000029079125,0.7978555656118721,0.12137653818151978,0.7256737684403647,0.07357374181848779,0.8982301006835718,0.20680441849512748,0.8349212035779194,0.3335343002646053,0.9293607102625028,0.6450823427292649,0.6750562066043936,0.07378093376290307,0.6702585974514674,0.047442600709846405,0.8262256030449034,0.45081222097780277,0.7982981610521099,0.18757359242358268,0.8377158904425279,0.28530620217842073,0.36133263769844226,0.9286663522818988,0.5074804768223719,0.9122880146136318,0.3188139583977956,0.8794688365941498,0.27171894128927593,0.8193564049637188,0.07249711613258258,0.7071738606921004,0.07473314030923768,0.7360904854287758,0.09732696618944835,0.7370630785744549,0.15205448194940935,0.9491972912657605,0.7876050011039778,0.9811117157005245,0.86574946702344,0.8942315920078725,0.3557074672057639,0.9637954454130925,0.46286651960974096,0.794779939240765,0.11130700927455223,0.7320569986311584,0.07198882488386897,0.836684584917961,0.31732252593454086,0.911601998628558,0.5940640715670576,0.6581901646657671,0.06892779217406134,0.6595775884212663,0.05274397621535149,0.8229410810500413,0.4419694440598657,0.7962173153024592,0.19340094251409026,0.8273943551786292,0.3062251643503386
3,4.508079167061073,0.3985242602668257,0.9356992093659191,0.558633761792002,0.7940785550932581,0.017948052423706812,0.9514255094352243,0.5322908248343258,0.8833823476361977,0.40703568396185386,0.8140466450937646,0.03679612241886696,0.9221382685591923,0.353709135920425,0.8546471745726656,0.05769144118925896,0.8702770090291823,0.12325828885394637,0.9793010616477181,0.66880473323381,0.711401965853676,0.06974221752515314,0.8057387201670595,0.13719379244501106,0.7770037034984131,0.1425089278150721,0.9452776632452019,0.7388615901886482,0.9686606352595513,0.8213267512250471,0.9284553704883609,0.4949579117355453,0.9767825111766972,0.5319073595616663,0.8743680837353527,0.04004542275560272,0.8484349352703601,0.1883956830021718,0.7519965286005539,0.07638513891730368,0.8992681362680158,0.19269432777605466,0.8838028071751038,0.395601840990669,0.9491314744705701,0.7155373647431426,0.7781044687453721,0.11131405960710714,0.7014181732928875,0.05321360845586148,0.8438702276994153,0.4816181710867054,0.8394856362557502,0.21083745386136693,0.8649306469859794,0.3137811410123202,0.3811582320936126,0.9419079697819251,0.5381061345099492,0.9423394746367943,0.4835357675198729,0.9183779519590202,0.3339027310226808,0.8532748856910021,0.10629785246384396,0.6742387447375827,0.061959900112954436,0.7723273855211843,0.13944187924761944,0.7639711475858073,0.14484844519539813,0.9431508327797866,0.7301181514207004,0.971173259589989,0.8325103267165309,0.9229844977823415,0.4651987901797367,0.9647898140545199,0.49096192263677924,0.8514915371065328,0.16467602762649874,0.7639150951092055,0.08509807544495067,0.8822649103725694,0.3707098673171802,0.9260951197581697,0.6570556172827641,0.7608928436604104,0.11046880791607123,0.6811710714078295,0.056500587023291464,0.8458419435589073,0.47903368602201496,0.8364791373248427,0.21120597562724247,0.8535098748641275,0.3400858181729515
4,4.402234855365974,0.39283496062209633,0.9365686445923216,0.522866978016536,0.8043395841330429,0.02185218901297199,0.9533563731786103,0.5942890345634562,0.8599546678870255,0.3415613760950491,0.890934673979056,0.09631142392078736,0.8900396353437895,0.35721492659552945,0.7349516171259228,0.03328427655652752,0.8382404954420437,0.10009206684243499,0.9669168913541305,0.6553957980133353,0.7285607670851368,0.08207144170085942,0.8028196024748638,0.19089639426092342,0.7671308297414852,0.15966932394806688,0.9605088658155624,0.8346127484824124,0.9830991857372278,0.8518239368798097,0.9192640631293807,0.4667670994675008,0.9740190101125552,0.5731309728552647,0.8842010841973357,0.041998132405712686,0.8152197144606826,0.1492185525578814,0.7174222477958717,0.07599066740488442,0.8999068241715439,0.21097968193112365,0.8563950811753391,0.3842935933050334,0.9528080367382517,0.7296823780888484,0.7041252867032128,0.0912995877338582,0.6955842740421735,0.06738144763177745,0.806179219127386,0.41932532285001695,0.7860525795286356,0.17749888273115874,0.8510999713489457,0.316519547455837,0.38242528135946935,0.9416648178153076,0.5024643374892314,0.9397228784309213,0.5462406430247255,0.8846667021314785,0.30075057904572566,0.8200285955486589,0.09034973065392629,0.6962802579926363,0.08044550172228027,0.7711218464580729,0.1966149770434915,0.7590326647960073,0.16042326475576563,0.9560146804976309,0.8110915838569799,0.9807283397560607,0.8523538645342928,0.91690857684793,0.42166356393464677,0.9664065730242202,0.5159789980951975,0.8095447950439526,0.15150080468367572,0.7170459328761828,0.07970052441739547,0.8537856224723328,0.34889980322978886,0.9273070181277596,0.6460374566093945,0.6848804864439982,0.08021250905315382,0.6775631438481937,0.07306778832319474,0.8057259885518069,0.4225498762105361,0.781174459301067,0.16502223938576605,0.8362949147349589,0.3392298971615352
5,4.334958493891706,0.3894561625798117,0.9529488098526785,0.5940728997537829,0.8262548745270291,0.02751282140211061,0.9439445162625287,0.6101877816292558,0.8825878838824529,0.35597890822211836,0.9233788019470991,0.15589293724937214,0.9250794192594038,0.41100858763509995,0.7984734130590984,0.03409208409833315,0.8384299394068414,0.10810290254497702,0.9831550045361943,0.7466444876215497,0.7517068347934337,0.09251031262511368,0.7952237997206375,0.20282190490416974,0.7635444739175936,0.17767599093305192,0.9664895898617464,0.8624054044229016,0.9843784787805789,0.8553647045112784,0.9154410070148526,0.5198163953812946,0.9641617534506153,0.6639474219205794,0.8917807154181695,0.05093402167431062,0.835346431038163,0.21366237160306556,0.788206408171937,0.12690477040234927,0.9021393625763355,0.2219387940401097,0.8852007993585865,0.4549107199337248,0.9592000598391999,0.7722343407771387,0.7417621974317267,0.09821541037066644,0.7970054520966806,0.12569565679437258,0.8570316569437139,0.5185036735618453,0.8739500661893244,0.3432277901791275,0.87487775958987,0.35939473439198844,0.3688604009838265,0.9560802558362075,0.5909320372936926,0.9205464174697506,0.5273482891685304,0.9093852434378203,0.3559743128718795,0.8241315810020154,0.09049989278215224,0.7406007642291991,0.0923774701242796,0.7646748860449618,0.2087743020063545,0.7467070577454359,0.15588964665587604,0.9614419064305049,0.8437851061602791,0.9813465117261361,0.8443053213011662,0.9034019844835208,0.47597406142638954,0.9532726812138576,0.5606271945134772,0.8262219924604087,0.21729537032385476,0.79106790041881,0.1293088148965552,0.8798630286748291,0.4389531900058057,0.9383429006739931,0.6954469666769492,0.7343433435224082,0.09674120487154261,0.789543860510748,0.12816919964606835,0.8521084765371849,0.5149562516125628,0.8714856146378261,0.33071284798457357,0.8602403372134535,0.38410902528010465
6,4.2713014908966604,0.41079724727335964,0.9464105177761538,0.5646176667467031,0.7820659691783917,0.021672741229516526,0.958311723463334,0.6438775409607982,0.8671728238772758,0.2625823466057057,0.9253105796440655,0.20822047564406823,0.9024078111827345,0.3853343628354038,0.6946582322287899,0.022546089750942102,0.8208214900056113,0.11025952688377587,0.9719218973700435,0.5960324717593767,0.7579376212263415,0.104672630709637,0.7720176127843781,0.21878981454239332,0.7388877870151773,0.19049930076433522,0.9638162761283233,0.8471123866038334,0.9860944871022784,0.8268779628568741,0.9130335507344266,0.5093390171466603,0.9785568533203329,0.6248904497021774,0.8905908365013246,0.07125680320060979,0.7889573373463317,0.19375409880464123,0.6808443064864727,0.06908005884608635,0.9056229237610898,0.25616711785818413,0.861501483480914,0.4355446068063945,0.950648882752082,0.749167887747801,0.6905089781401804,0.081343434323422,0.7007613299297505,0.08892376942033205,0.7948467587949668,0.4519231243835492,0.772178768449593,0.18247277187904087,0.8467648784107833,0.33526763300047163,0.3918163523887605,0.9504102849280036,0.5237523591577102,0.9417780990629566,0.5550655061200107,0.8914815684615756,0.325400175583284,0.8057494254051443,0.0811431975373262,0.7206431827215728,0.08687343601687324,0.7555750105363143,0.21643355774898132,0.7241212503908487,0.17985301766201073,0.9593593385089423,0.8349694828070553,0.9845792430374902,0.7930764128899811,0.9066428143584478,0.4604867531908388,0.9716106296988649,0.5079416889746721,0.7988643809621062,0.1965110299962534,0.6970866840586236,0.07729772719700065,0.8557622973947393,0.40886652820160824,0.9233338510580075,0.6656311962453119,0.685503767096358,0.07921000175126404,0.7092665222131403,0.08771965522246299,0.7959215779463906,0.4440334826458048,0.7708994723828562,0.19958520036338234,0.8341362842222307,0.35388686364799116
7,4.230151990058777,0.3882884897269633,0.9545741730862705,0.6093916398300296,0.8054944000383089,0.024186804901472854,0.9509104779740263,0.6519613248006213,0.8834791213471376,0.2718243958245146,0.918031524987586,0.12709836832215957,0.9282241895502199,0.4325924703817922,0.7262636057736531,0.02763703354210561,0.8914798180496915,0.16453536512306546,0.9790045031749847,0.6825066889435442,0.7532743639399839,0.11677886301784814,0.8486264723592403,0.2725004855778611,0.7732766748463357,0.217331045764467,0.9690961200635196,0.8731383491003065,0.9877739397133029,0.8797070600928002,0.9314306024194638,0.5613681430373162,0.979601392689514,0.664789903792242,0.8722394478073314,0.08339821349129477,0.792095424603881,0.16743625531926606,0.6806508897079341,0.0641049040594802,0.9364228056712773,0.3417251177002765,0.8816433977839507,0.4810717660579579,0.9682636815027731,0.7800042857200324,0.7058579937873831,0.10253162648871653,0.6884902915286495,0.0750704617850434,0.8051824503830476,0.47359713184043856,0.7903444337549091,0.21134137375331447,0.861605084482476,0.35990881070261416,0.37363046880822837,0.9524396994327949,0.5745078909471409,0.9321669990491278,0.5973099416637526,0.9195283958530389,0.35893959314066043,0.8754242364354134,0.12798675369491813,0.7235358801837168,0.08801631430753745,0.8191083774756692,0.2656159104868735,0.75126695877105,0.1914333009765588,0.9641770681384814,0.8528906180149622,0.9853564303053342,0.8579216361958995,0.9112756528187793,0.4902685068992958,0.9729573222220281,0.5993932979567532,0.790361917404883,0.16753072904721864,0.6777062154220649,0.06821093391189326,0.8763603682686982,0.4476681037345478,0.9459355443346656,0.6957684138173947,0.6864235720701345,0.09305912777656537,0.7040443089559237,0.08788235405138145,0.7969211094724964,0.44804352996035296,0.7905207042718626,0.22410031807948133,0.8460795137308506,0.38087090919279937
8,4.193557258185498,0.43834935777993095,0.949335662807328,0.6079134866246729,0.8374561012588619,0.028907839976358055,0.9674274762172992,0.7272354881807982,0.8753658420295095,0.28576600033652805,0.9456315796274521,0.2495597552347958,0.9576446132427779,0.51923071520809,0.7240660011488641,0.027914875699740355,0.9116416954783128,0.22244438637762984,0.9792065704079608,0.7637029428812567,0.7870966759389749,0.124494075086162,0.8461860684834345,0.29166577995330983,0.8081656570287626,0.22827170206146838,0.9694606566994655,0.8592185483359462,0.9871613606708459,0.896733779081269,0.948201429963185,0.608563447852229,0.9879843880866186,0.7815853972753193,0.9160004967974081,0.08407853644641701,0.8725632825556674,0.28777991120700275,0.7369892337144645,0.11133598181826275,0.9328366133508585,0.3503834412218382,0.8694768755462565,0.4760167227561953,0.9658795819530185,0.8031411963180791,0.7274145872269282,0.11826064412456842,0.7767732792360832,0.1353518153564131,0.822501947436358,0.49419695860048257,0.7961440283873248,0.23082341701757328,0.8807158348190008,0.396714494039708,0.413281657598569,0.9453609197963477,0.5673640010896616,0.9517090152057383,0.6425864551205058,0.9445321693955109,0.4278121199597612,0.8969947225109429,0.17568185519544577,0.763539390879734,0.09421503370455857,0.8120367728302604,0.253404818232972,0.789436968124346,0.20769976619262864,0.9623729816983949,0.8310571758027261,0.983620927407032,0.878973321559378,0.931767780487457,0.5474764919266636,0.9844089402912932,0.6960456511189436,0.8710442674427511,0.2950054010888313,0.7387861849779827,0.1151150222661433,0.8663289610870888,0.4257087308349934,0.9422627104048924,0.7208986555210953,0.7151811054013166,0.10663188924208299,0.7772669673451617,0.1493938103497208,0.8159911989359265,0.4747402118708975,0.7948171683538654,0.24161384267951516,0.8677610080303179,0.41323285546086974
9,4.153776971643061,0.3543514446846041,0.9527912425298891,0.5434231237669263,0.7845214795854922,0.029258716869766666,0.9549920628534224,0.5779589599644073,0.808064902366156,0.17268683164658716,0.926313941103393,0.2739964110990469,0.9243703578447637,0.43289653616071394,0.7059740611445285,0.03452000100876318,0.8505703194708907,0.13728467930399263,0.970593114310953,0.5636753262066229,0.6843499204041263,0.07853401902705286,0.8271245166543244,0.24848414916771921,0.7452916874459533,0.1689101863261601,0.9706920311290036,0.8800815933661758,0.9898599819331526,0.9135362627336973,0.9343497326236889,0.566535561506383,0.9786209975536257,0.6657735593535969,0.8957769870881799,0.05886167827007251,0.761694281663648,0.1564116159277482,0.6311291549699201,0.07559773842637402,0.9145431365063849,0.2548822266248602,0.8875348780917951,0.45255067562216855,0.9723546496578276,0.8165154876458881,0.7141167464203405,0.09318119991575503,0.665024055404342,0.09210551310745119,0.8182249586457907,0.481527311244675,0.7824702113258525,0.1807025721272924,0.848128823412594,0.3442266129392268,0.336438846239845,0.9566525193521115,0.5051023020947877,0.9380911015003486,0.49391929799935036,0.9054229157178748,0.3539750629064394,0.828857349202399,0.09953837710607982,0.6382828344373166,0.06840686394135266,0.7936430661330536,0.23006774447182252,0.7321372010769149,0.15230275697969003,0.9634038579439104,0.8477209739827682,0.9845049530780642,0.8946981202237886,0.921241924442733,0.5311498138412248,0.969725988108341,0.5904819192017937,0.7617729527796926,0.14665785494467404,0.6481450890562823,0.07327367838536125,0.8810395318907092,0.4161648873529274,0.9492814721131302,0.7255322993333349,0.7004383798023861,0.08603153816402673,0.6697104809881463,0.07579792253247038,0.8131253356874345,0.4599291978482264,0.7778243097190934,0.19014285036154782,0.8333316454226286,0.3653101821932456
10,4.110810243423845,0.406871878959529,0.9439192248918604,0.5758574721564335,0.8242888442553377,0.039983065444628214,0.9649151577031079,0.744171754978286,0.8529509975353261,0.2757371855753159,0.9325737592043254,0.2185678431580454,0.9335791443062895,0.5022944653675221,0.6858321770717345,0.028854012318817984,0.908312767665777,0.24167098094278638,0.9800879031981156,0.7531781444012053,0.7470416851786845,0.12163574634265342,0.8517809359369218,0.29375122048623303,0.7723834182213257,0.22399957745353002,0.9710882266624673,0.8758775952853209,0.9904102565857308,0.875946603811027,0.9271693148276772,0.5346614681472016,0.9753986299147509,0.5953815020248237,0.9080293652975263,0.11088968355962431,0.802433210420498,0.21765705932708712,0.6631378112752515,0.07176525035553874,0.921977418148469,0.3321363820593413,0.8797373470304175,0.491768370133673,0.960721873776088,0.7590722534051465,0.722616104474406,0.11448353816024937,0.6395555722624149,0.08688516488488607,0.7705507153355456,0.4386742586646112,0.7291779735748194,0.1619767415311543,0.8561411474905719,0.3725722053836593,0.3804129089960498,0.9432274573795741,0.5345000837547822,0.9420725443034673,0.6536590801142679,0.9191032506094974,0.40900452361195616,0.8805821707242092,0.1702134484223288,0.7018003197344638,0.0775217775859864,0.8085150675369233,0.26713386636391384,0.7453959381518374,0.19727184316072097,0.9639441933006403,0.8561634530397596,0.9872643654171542,0.8518848336593107,0.9080281378798899,0.45370000240654185,0.9629819703349114,0.5106445490507693,0.8006066350105946,0.22489249147175513,0.6494896619010094,0.06738928597941551,0.8691777138433563,0.4209578954602635,0.9398385966914223,0.6799949061376678,0.6978411682275051,0.09772843565501602,0.658488340230541,0.08377228294868444,0.7629059000807193,0.41936521093287604,0.7390042380390993,0.17811352194914604,0.8358035615472008,0.3765216574581664
11,4.090266377480855,0.3840401480708554,0.9415616684092555,0.5935833208830606,0.7866678065342798,0.04211553402711272,0.954229887772196,0.7030809850675205,0.8050063206149222,0.2924167229461151,0.9418246023380694,0.2670826526899335,0.90881044730405,0.48359490172702274,0.5431095171104203,0.0188433487202285,0.8483950073392494,0.18562615293386237,0.9699449360203856,0.7104609407225209,0.6957059344690009,0.10626719200656584,0.8041872286804725,0.22227688249384356,0.7103110985497081,0.16809937561275534,0.970951122281074,0.8734396578601727,0.9764749174217332,0.7773470503736378,0.9058753814089243,0.5008932820192135,0.955278240341735,0.5308659935315001,0.9050561097003859,0.07224618912864704,0.7370411507885095,0.19325815192866658,0.5681362011062889,0.04798656528471898,0.899700555452949,0.35216430789220543,0.8514817235080552,0.35847428637461515,0.9380682052594267,0.7082549381869374,0.5727383759746991,0.06107844043598289,0.6429043976355618,0.08743800735442597,0.7463465925468137,0.4016981959337914,0.6994480570900025,0.11378399838690487,0.818432903294545,0.34124527209699856,0.35283595438622645,0.9345215284734314,0.5481900150620199,0.9269622148857077,0.6122728446259613,0.8846318860662646,0.3952543815709211,0.80306676279846,0.1280982388703895,0.637814403138156,0.057212080265760724,0.7723149898574304,0.19974842369919601,0.6865119650449323,0.14617670105804292,0.9630974046232733,0.8469054266349881,0.9781438442445158,0.7618055896697078,0.8753948644447296,0.4333130158527848,0.9477821793998265,0.49577627758251885,0.7247613030047739,0.1801796237620326,0.5620925289634817,0.05290177303955616,0.8399839467259601,0.31212523065470904,0.911315136895913,0.6059383280955345,0.5392525832703892,0.05529955321405143,0.6546511229059403,0.09710251607329748,0.7413103429174218,0.3653281226169533,0.7065049784893933,0.12549344458879866,0.7942165255868421,0.3378485045756433
12,4.047317139836016,0.4251819830563216,0.9570046472918773,0.5921226384656996,0.8011779962170039,0.0421787777447723,0.961726264065052,0.7069500386045984,0.7826914365886399,0.20141267095000992,0.952293674512533,0.37808817996048644,0.9392811118924889,0.5004427332905684,0.634922863360434,0.03666768747959421,0.8633168282352819,0.22196227092332782,0.9629339670452142,0.7301611711574457,0.7554535238999865,0.14040886431261215,0.810172148909253,0.2685877569454625,0.7879727102198469,0.25726450309623794,0.9753366570416886,0.8895302152210627,0.9788874945251976,0.8810309613415547,0.9287093465947305,0.5316557124493,0.9678860469357918,0.6334082310013721,0.9037253184490608,0.07695594519014834,0.8103780292064013,0.2219020681561901,0.6659953468082013,0.09295975724955843,0.922785780701144,0.29597814253250615,0.8743269754483731,0.4736820369718352,0.9600824308977812,0.7756100053046047,0.6733217114498922,0.1135829788665784,0.6160071070649735,0.09501580969878871,0.8169334217637748,0.48227364492109237,0.7595318829883118,0.20126701581882708,0.8485713354658821,0.37850383914054747,0.3953939032570619,0.9481113863311779,0.5478766418287604,0.9381246911272999,0.6038126178786759,0.9198103843563852,0.3902735197913474,0.832822480688245,0.14652440995943866,0.7032298403358662,0.10536196082301923,0.7842778991148525,0.24698462059145587,0.762763915904258,0.20336177274967276,0.9651474418083258,0.8480003184763796,0.9735915344230851,0.8674164911397997,0.8951480697100644,0.46672042027559957,0.9505210608151785,0.5241001723433425,0.8085456502684809,0.19806316460718765,0.6448157774090554,0.07975863533498882,0.8629794378218996,0.3930534621332814,0.9336183460492852,0.6689957863693949,0.639410369297311,0.08973568668305293,0.6398455134629049,0.09090618132631968,0.8057422188656052,0.4416804662207734,0.7599090672969689,0.19755392466466104,0.8299165834255922,0.37422001332616595
13,4.028268378250809,0.4217783409107848,0.9209018421319495,0.537286058349846,0.8028541036392607,0.04130260933983715,0.9641533797404727,0.7274272623982629,0.823428310109507,0.24393447169627952,0.9521294780231443,0.3551329749804904,0.8966815816270748,0.4580703082628991,0.5989429292432228,0.034567495529685924,0.8913176252370308,0.23586501031840573,0.9532512055756154,0.5865228686185815,0.8164525176657181,0.15427541149808527,0.7857887721499139,0.27237626441704194,0.7837912754172643,0.25945857759243296,0.9743988223510496,0.8910830004451659,0.9873426564652852,0.889219243109119,0.9533143861432274,0.6312957758080623,0.9778961788342706,0.6272870758482878,0.9152132779466161,0.0980133342284676,0.8333457613247741,0.26436364759231357,0.7027071066824209,0.09744104538803713,0.9072884262448958,0.3390911546528769,0.8760281932201134,0.4759089078972396,0.9708796236667464,0.8192075969256483,0.6703027507138513,0.08781774827475888,0.6785755179442385,0.11893989016295342,0.7681364564362407,0.4514548202574011,0.7574833993371561,0.19103597524266375,0.8524079068411947,0.38032225110903245,0.39941864798390103,0.9173126441263675,0.48775333217171873,0.9428894154440102,0.6446279145109224,0.8721056712991496,0.3531642220862022,0.864830830002879,0.1561301436186001,0.7509593484612416,0.09921792532011137,0.758294764995229,0.2342713267294813,0.736852595573495,0.19824438290687982,0.9650791466988141,0.8570361122749096,0.9789212799737624,0.8637883923023032,0.9204400733039546,0.5260424301133784,0.9645135601017953,0.5381439171129508,0.8110639886650838,0.22025893212573944,0.6950602396370203,0.08961600285009119,0.8685068847403863,0.3981963882289675,0.9425430213355397,0.7022196311357001,0.646060706501699,0.08151750057388976,0.6880686688252842,0.11606118257383347,0.7623770256027026,0.40991543981527023,0.7577786330977176,0.1968696164694563,0.8338767630729544,0.37753025225896875
14,3.9967051069590354,0.4532309756279347,0.9602810929703155,0.6548844002217034,0.8690940890880879,0.0464841043693317,0.966619872859348,0.7470931951824149,0.873912366257578,0.37105807901632887,0.9503472677298058,0.31307786645215774,0.9456304740622166,0.5608060790231381,0.6760165292339597,0.03629005849234672,0.9001831198577618,0.26358202294647776,0.980119824727532,0.7966028921246869,0.7805464493349208,0.16653011919357075,0.8671728414559216,0.3488083389175134,0.8146950008874702,0.28269054780985164,0.9748925774754384,0.8825441580705604,0.9934286405153613,0.9143464816323726,0.9502451401099474,0.6121294676467066,0.9830165635899842,0.7230813820746915,0.9060314964430716,0.07241735047563574,0.8485816011043513,0.31133569970361996,0.705099692923556,0.09969720506730739,0.9266480309124097,0.3325052887246146,0.8654483740496727,0.49049255221959626,0.9735112341926401,0.8398199127146517,0.7182219359779791,0.15500511341083154,0.6579215655821992,0.09203861760953316,0.8162216975564676,0.49795257070120785,0.7659686817484184,0.19475470393804947,0.8719175446402467,0.4156164695284193,0.4161884176790639,0.9502153151483195,0.5768604663819306,0.9426617921209455,0.6529992305253668,0.9117027823874825,0.43594660064448065,0.8423270847667708,0.1519980791367463,0.7295113169172026,0.09849339193452239,0.8203477007988155,0.2894281749440133,0.7827282454651403,0.22169212754415457,0.963922370671857,0.8379789716381594,0.9858814292493733,0.859634776808231,0.918908569717195,0.5035373040256615,0.9747786328668681,0.5912643885761513,0.829759473419962,0.25742279033142346,0.6932534380113782,0.09826587576196788,0.8482587382625004,0.41700519814389225,0.9452026469466395,0.7138581353728369,0.6790967740722768,0.1216336974694257,0.6631459530210315,0.09267591500905087,0.8003651114938759,0.45309475552734635,0.764242328604531,0.20107644768872823,0.844542615996956,0.3986771751296889
15,3.9717615890531364,0.4167846761571141,0.9488395932483138,0.578753095504292,0.8290922663297138,0.06710868911170241,0.9755482274402676,0.7738229560566081,0.8790806044207159,0.291833728317931,0.9520886827177426,0.3597310401331942,0.9467770009291454,0.5277323836165757,0.6848451252718581,0.040863870327068647,0.8514912244391093,0.2222755023769081,0.9797835070458762,0.7523925703569688,0.7879477846950538,0.17783027920793876,0.8401501559485628,0.2946188318819065,0.7694460056632257,0.25221111474300056,0.9779271350967673,0.9055624992299696,0.9919946843092168,0.9176806220621133,0.9542282093510729,0.5981234577366334,0.983126657476242,0.6806404477426689,0.8970075538408996,0.11735099108944612,0.8167175515241224,0.22827450092129511,0.7415650611135989,0.11210422921307919,0.9301272573111331,0.3392526669083074,0.8962889117150018,0.527261788136691,0.9776636929540486,0.8456317445634663,0.7528280005617791,0.14961849633906155,0.6449875877378027,0.11945063690491474,0.8243177563443904,0.5246033959466887,0.7760230650491846,0.23625813651685906,0.8696112808667249,0.409268756728665,0.3774316166057986,0.9361938185295565,0.5217114540355643,0.9546503409168468,0.6765617067635146,0.9267199676837716,0.4004809681077238,0.8250242769376412,0.1538132694349857,0.7390900043811165,0.09802704574068626,0.7765189427616856,0.23306024366307931,0.7316426337040811,0.19929805222897035,0.9662238010064631,0.8624659900528637,0.9831053699962979,0.8853176191184278,0.9241917311998175,0.48636061890193955,0.9718210049092403,0.5827690396273927,0.8074551326236247,0.21165223061094599,0.7250726840227303,0.09945364220070174,0.8784244639999099,0.44842660795387707,0.9498434675296819,0.7165524295469166,0.7207229616968273,0.11343612079626428,0.6577030252216792,0.11518659417958925,0.8108177202566049,0.4737676882469152,0.7740956743885103,0.23745218078495547,0.8452272116718992,0.39556807905238495
16,3.9403450051371864,0.471441703311719,0.9543450867739262,0.6717788531862735,0.8402071823631135,0.059963242578756626,0.9769693476700111,0.7787796618782261,0.8036900210393539,0.2359573336958457,0.9352253156098345,0.29363856269020555,0.9197264883182545,0.5018303764566385,0.637869867018659,0.03803216500556162,0.8951505925934686,0.2495040999707882,0.9606099962774316,0.6606140421034367,0.7815827337780982,0.19805729384268242,0.8114860343862536,0.29716711781579797,0.7603625464770203,0.23722180678960733,0.9766580710300948,0.8945809968077998,0.9934008958145136,0.9167916847298088,0.9635323438571461,0.6576263561316851,0.9851554087670011,0.7340133995094421,0.9215760652150187,0.12837121578807462,0.8616758843525685,0.33847893888236846,0.679816491597877,0.08888126309158623,0.9264276277896688,0.3607834846029169,0.8966606451530653,0.5242679687374867,0.972967618604414,0.8157346332872366,0.7708756541851326,0.14072508050911975,0.6233936890608376,0.09528670045730475,0.8049694930626969,0.49662714622086934,0.7512156158111444,0.16914540325344854,0.8617519506387155,0.4070714933854988,0.42647387642543044,0.941153222235775,0.5949464863170716,0.9517808398335812,0.6608223680870493,0.8928482612078538,0.3736632858355213,0.852060733822288,0.16422407313340667,0.708488485787484,0.08690746370067647,0.7597883209514427,0.24089146155207178,0.7162753442513775,0.19064519627282056,0.9666013413194848,0.852612665030598,0.9862521336622961,0.8801270336026225,0.9307823129251701,0.522491292427457,0.9788525597349127,0.6213151741249119,0.8412052283577137,0.2841832152608672,0.6787894398517278,0.09331735994586536,0.8843671899053283,0.4379795974912837,0.9447529660869206,0.6647867276123341,0.7567350808165838,0.12378769848995853,0.6335341494606769,0.07922035308664506,0.7934002780852568,0.4460325280276161,0.7549559104154272,0.17921285870742054,0.8406644104584896,0.39458772835295775
17,3.9117907189940233,0.47300688181660083,0.9541949939329938,0.5871246123395213,0.842998619028825,0.049859111721687666,0.9719315325746974,0.7983910202969873,0.8532736872635333,0.28807748715188974,0.9579334870387224,0.34500472017068673,0.9439928982667763,0.5823958642185515,0.686206747936258,0.03999199246544821,0.8872096002901533,0.25524480648521347,0.9801741835355338,0.7947577668191901,0.7567440918631273,0.20598832588168534,0.8830750048690328,0.3836271947375266,0.7888884990640109,0.2708469113468962,0.9769470196124583,0.8947034027980955,0.9824267117881617,0.8514448975469442,0.9402757497519847,0.6385083083662586,0.9811398537718996,0.6996368166010348,0.8996273805854735,0.08483830596431124,0.7769048149456539,0.20840383401380178,0.6695319852608855,0.0894043489667712,0.9356666371206709,0.41131693194590263,0.8893272817770889,0.5027438521153115,0.9763567618581558,0.8717713131579627,0.6915690265523281,0.13776297555462794,0.5936987552125814,0.11956898344785787,0.803437719450727,0.5159878931880402,0.7436361207977779,0.18171088563844437,0.8602757370826736,0.41573509857464036,0.4190951777595588,0.9464916804890315,0.5068702671737927,0.9443895138902041,0.6945711732764761,0.913949824211308,0.42317690906041217,0.8378835817144642,0.1409830613525429,0.6906693823786272,0.09132517570162063,0.8304013132598117,0.2822773275284371,0.7438340663014685,0.18615903462212297,0.9630612161667971,0.8351292640908105,0.9755325149014724,0.837596043732342,0.9011806714299975,0.48484152434112265,0.9637350262350263,0.5520318281385965,0.7633839447550483,0.1777211053708467,0.6464558585280139,0.08265645385291594,0.8685680592098124,0.3885889137805738,0.9449370224914391,0.715628986778048,0.6538345622984597,0.10018155831266848,0.6186191084808564,0.10307971322364154,0.7880635921336255,0.44572741954295436,0.735546300121576,0.18709516911172666,0.8279230125787916,0.3808232067890343
18,3.8747817178426573,0.4720379617897692,0.967469866036304,0.6952579473947423,0.849439289402282,0.06633033460870842,0.9676495282126634,0.7977739791416492,0.852122126127809,0.30640628068252423,0.9693585722750674,0.44107706665002827,0.9525911354811232,0.6320338623780118,0.6963395877597729,0.04808859693130896,0.8880881583806081,0.27273069086297763,0.9709711670871204,0.7040910081204342,0.8264203498996945,0.22945532041056974,0.8695402935482665,0.3735546032890367,0.7850021806735437,0.28941594765510237,0.9807382769798727,0.9147635160840794,0.993863402543958,0.9154781802618204,0.9716796192436019,0.7324410748719395,0.9881951080072532,0.778889332242225,0.9168366798811359,0.08660439687271676,0.8695742146829883,0.41663165715517075,0.7262707099747019,0.11691224982804574,0.9219159189234334,0.3953762707224763,0.8825783422410655,0.5254831013775304,0.9793294878228487,0.8783034320996527,0.7083256933964631,0.1598100840658082,0.6978904224027112,0.14237992730171362,0.8328435848243212,0.5583440656943474,0.8007628989185018,0.2746719530488849,0.8794537159510428,0.45201172614428875,0.4085115897741671,0.9579122994556534,0.6192596113781418,0.9318989967064298,0.6838092733215263,0.9035246832927434,0.45447074415928046,0.8499160676728786,0.18081619358734413,0.7518384731663866,0.1014367387351507,0.8065146261540727,0.26445567266852127,0.7320432958795415,0.19132493239812184,0.9648235657249516,0.8531705646680355,0.9815251554747226,0.8518159836913707,0.9325628574280864,0.5399985848686988,0.9720757845757847,0.6441712594225842,0.8495310093351375,0.32120017553333774,0.702274699923482,0.10066826737210882,0.8667471340042429,0.44682232087226076,0.9440660828000241,0.7035346021384047,0.6797925802189925,0.12088395265008975,0.7053680115344543,0.12682957127973585,0.8142070331771429,0.4921850483711659,0.7971066066189347,0.27440982207616943,0.8496699454286137,0.4195401746943183
19,3.8529645235197125,0.4788204019775906,0.9583101813807596,0.6628199280911818,0.8656102842190061,0.09888036116095317,0.983136714345282,0.8388630064772655,0.84202274568463,0.3021830649003603,0.9530241135327812,0.3992249001700565,0.9499875690144698,0.6149119666740074,0.7300882103772146,0.062289332950088504,0.91756822150998,0.30561414842679435,0.9770419218815629,0.7890156526174189,0.8202310130278786,0.22680183477060134,0.8658672849547725,0.3960828126473752,0.8240375134195295,0.3248453081832335,0.9805050466255112,0.9078622125175848,0.9856632893980455,0.8903596751625902,0.9646629260607664,0.6789361162547403,0.9872166212642097,0.7653587913354544,0.9405661247815832,0.1382917418470156,0.8927412179928732,0.40888133591982057,0.7215705655102964,0.13151362193616672,0.936740207356388,0.4264798239713567,0.8728242117613229,0.5251885556169674,0.9706332612466781,0.8279278300583559,0.7189287687856389,0.1487685753855047,0.6468645250671311,0.11130398851829844,0.8163426121004314,0.5195524895776105,0.7692855274590047,0.24993584477269493,0.8804411799522209,0.45199588153628845,0.42274726093761644,0.9479339446228199,0.5771485939541532,0.9546141606005824,0.6936012265630009,0.9112986132826101,0.4199686528081466,0.873729120613682,0.18750371853887582,0.7389610370770119,0.10352065947974994,0.7935632234753456,0.26192428626695063,0.7805694411168728,0.21491373582243223,0.9645895246575561,0.8440267122526016,0.9778499144050468,0.86093703068358,0.9266236683352587,0.5278495432268578,0.9745074745074745,0.6122706391758163,0.8714514564346074,0.3092556088754165,0.694073886449773,0.1039698380568712,0.855349872144555,0.4014873664320858,0.9362281538677732,0.6457993932149978,0.688579678262496,0.11182860009673463,0.6553189183837577,0.09467170785328069,0.7904180461330792,0.429895709584566,0.7628669634609057,0.23746831551067987,0.8472908998858529,0.4020021757050946
20,3.8240774196588174,0.4158654443367867,0.9612590174596903,0.7279815083831089,0.8364703828796647,0.06331652273132432,0.9774125424681757,0.8219448568913122,0.8285832769155007,0.38706698786744953,0.9462372330076478,0.31997326072740245,0.9496287823434195,0.6314283390530787,0.6257479356147228,0.05300864544132465,0.8354279104361892,0.17965283505868065,0.9620113162919495,0.7953309552346268,0.7776987221848164,0.2026651029534433,0.8395849017013433,0.34618526601398747,0.7784897551718928,0.2272761059298306,0.9727050156593632,0.8919722881813624,0.9921076448769539,0.913541618628407,0.9593674833450363,0.6579145252863169,0.9914928664275457,0.7904269433972354,0.927443656958613,0.15622098073367782,0.8076659346579708,0.18453037597339547,0.6785127517752894,0.10268908625895926,0.9180234223232828,0.3552090456211991,0.892797251292955,0.575230154479389,0.9786765822674144,0.8554394725326052,0.6959599535736622,0.1285693910944022,0.5267706701632364,0.09384420102122783,0.8211190455891739,0.5299718833306142,0.7475359577649735,0.24059224518367506,0.8549511543519418,0.43199933069261676,0.35633897294477157,0.946549787246031,0.6325024225982242,0.9436603688498375,0.6527687549235103,0.9051839607361284,0.4196831998351269,0.7804184538884579,0.08897108004021329,0.7113819086000447,0.09546804258610812,0.7703535583575697,0.22489220482233646,0.739088977458692,0.1609787579479465,0.955406067701534,0.8242094129239026,0.9820804667098989,0.8723778308377745,0.9003205265334644,0.46808912220967963,0.9721092699033875,0.6209825902766885,0.790906644371261,0.13655676857078286,0.6469732529322415,0.07756823703592494,0.8716910922416143,0.4632905374134004,0.9463557994144428,0.6839031508277063,0.6547979138973572,0.10460538797980337,0.5462729742887534,0.07091034463757809,0.8031915677168827,0.46971315947638986,0.7506968443300132,0.23517189402507438,0.8219704965882954,0.3843496262614827
21,3.79212287841135,0.4533303520409431,0.9545151115664766,0.5504984502734385,0.8581932602736764,0.12908614992614983,0.955382890250007,0.7803964630716206,0.7267384627280169,0.14495232679730705,0.9579926494612621,0.2955985329231367,0.9449581627455768,0.5849907270673765,0.6708193022033618,0.05159362606923673,0.8990377994341485,0.2908448309035374,0.9675376926521382,0.716129261574585,0.7900733841922577,0.2535743055955619,0.8324065940934308,0.3345660655975261,0.7736032672715794,0.25628428639521805,0.9826641388966385,0.9249347688513074,0.9884336533811465,0.9053065025192094,0.9566346636323679,0.6817533292459073,0.9790091980088385,0.7197569745920144,0.8893109317428982,0.11239020599420463,0.7708366500535492,0.19964811973489846,0.7019544653926951,0.11777004951518004,0.9065014815963172,0.3020629517867353,0.8343047745845615,0.5127292552569147,0.9677991562855675,0.8071876774570902,0.713983798132176,0.1822880563942736,0.6048699890344749,0.08325160348306729,0.7727534472955278,0.4478825000487662,0.684974385693738,0.12990947286745927,0.8494342042539397,0.40443794207468164,0.38704628456435863,0.9422879847712274,0.47577290104590503,0.9199371588106842,0.638997244357453,0.9012806689528494,0.4012277245428161,0.862606714830159,0.16387680900317253,0.7042238605470301,0.08409060507251082,0.7727923444380657,0.22288394493405414,0.7334637177389118,0.1878014058912192,0.965242259805128,0.8555484385401877,0.9720443652680775,0.8732823121951873,0.9002192700979762,0.49653611103527784,0.9460787953435011,0.5444217385634151,0.7384351093070554,0.1413491387670931,0.6713031282681299,0.0848962779096503,0.8022390579292483,0.3620091715910969,0.9211268647333348,0.6270513281826604,0.6656773646209048,0.1276323800943761,0.6203834605779466,0.07461781142521387,0.7546740436971209,0.36792226870339617,0.700087191902087,0.14899678740752345,0.8154791242968125,0.3620481262769584
22,3.749771948722676,0.4807085538247497,0.9597912740013917,0.6359422913949199,0.8377719945533508,0.09463689675158768,0.9754325509748738,0.749089757620412,0.8325195742613878,0.2819105495501003,0.9660927788617556,0.44880456765427335,0.947971956496646,0.6056016171881609,0.666824780213807,0.04386412600542003,0.9018659401006863,0.31656230027024235,0.9753436701714779,0.7143431850729475,0.8055320721807319,0.2720419391063017,0.842643337907527,0.32863701710472154,0.7897583022207019,0.29756795634446886,0.9800692744875886,0.9041882717005092,0.9940785166479611,0.9196101084525605,0.966889102294255,0.7091450371878614,0.9787014835586583,0.7219593288309416,0.8864742099992118,0.07858567262879433,0.8352887923441088,0.2437812754764041,0.6928518901164292,0.12699025164889197,0.9087006483286089,0.3383132702969481,0.8966357979986996,0.5862828532804618,0.9763521562054541,0.8771101770702313,0.7300967309714128,0.1544055444054521,0.574212925569458,0.1302646586589559,0.8125259892009322,0.5251485225792106,0.7279875570098889,0.20729378262016723,0.8639389733337309,0.4350800368808056,0.4037415219497652,0.9504381377536729,0.5449281712020443,0.9459903812172523,0.5969730816943717,0.8883481225923394,0.4300201507358001,0.8416951524201302,0.16094804793735284,0.7134372615410505,0.07989928652528613,0.7678371170894398,0.2326818242509604,0.7431247859638295,0.1801682192586599,0.9625258991311803,0.8350015202253362,0.9785289594187991,0.862179224167916,0.9089886478700495,0.4701871626995271,0.9521480109715402,0.5792129288634511,0.8009828699803426,0.17182882039117425,0.6569975910671255,0.09194938659710253,0.8670599196291267,0.43684958002303176,0.9370702488987784,0.690121239535452,0.6893504378628821,0.10141306119252179,0.6084348620227158,0.0985702424588135,0.7861230993442513,0.43509938983129914,0.725596881037123,0.18930206823686663,0.8276146518848225,0.37828070556984034
23,3.714665063908167,0.5191175374524857,0.9539027635476077,0.6444954408731353,0.8788265375082739,0.10351385828602126,0.9769596391655075,0.7907969437425008,0.7956279046095397,0.25364846122732576,0.9671046778001546,0.4563610669231111,0.9595893565239985,0.6617397287320038,0.7576020903408577,0.08318783721499062,0.9132182378705268,0.35907018907054816,0.9724248261154819,0.7772039355085665,0.8054352909374669,0.30309500637347897,0.8861322133534828,0.4380018022530526,0.8118464025066575,0.3584426895709255,0.9781299671829936,0.8800278635674712,0.9942555637677587,0.9173732142375582,0.9608831195005839,0.6951973886655112,0.9850214692342247,0.7240089580989042,0.9279275859041959,0.1340512330041143,0.8460897732854732,0.3547921016525152,0.7172824879040824,0.11153305804842326,0.9318740259974156,0.40745731848272326,0.8850332348949841,0.5385473294094711,0.9772478927996049,0.8429442245382359,0.7702895495913944,0.17836271094227968,0.6945224308546234,0.15280756407712934,0.8093415349088876,0.5275849331039741,0.7377377349176105,0.17992509074249577,0.8805502427316688,0.45669884416717177,0.4316166057986137,0.9391878372152808,0.5074343291144533,0.9362290212232842,0.6245092240080264,0.9152594272605898,0.44767979558168647,0.8607854870270877,0.1654945351381299,0.7147645077336862,0.0991295778750299,0.7923019039253423,0.24245322862437801,0.7422627193320853,0.2255661882519698,0.9603170073447017,0.8007709499758382,0.985604394785292,0.8717387934104296,0.8901096707026626,0.4717511299546273,0.9475947343594403,0.5643361337568845,0.7962285023784603,0.22714514492307944,0.6904343828873585,0.09392151288567603,0.8580705684884761,0.3929742352298162,0.9295446453004863,0.6447594291030274,0.7300270584317388,0.12132288272084286,0.6899877647161543,0.11468836206505928,0.7798077651642954,0.42082956256387916,0.7424642786552261,0.18349936198172678,0.8368937724700869,0.38000023037708214
24,3.685485725660377,0.48013713944995157,0.9569879761376073,0.7196867964586452,0.8644942791647132,0.13171705725001767,0.9707601790377817,0.8312625906279498,0.771850637039125,0.21987467889135626,0.9674294250446256,0.4122613382898829,0.95702933779252,0.56766597830151,0.6888631584499728,0.09610708629292604,0.8776840331573753,0.2766367610084306,0.9713733476217669,0.795430827012459,0.8253466124929885,0.3300041528496055,0.873888925782547,0.45350983436392617,0.7853923968692268,0.35178080514976195,0.9859314953950798,0.9340432213058284,0.9943581022510561,0.9433445849736527,0.9687522276587833,0.7473505909973958,0.9926082201409335,0.8142191358607199,0.9209563499615226,0.14331786591280166,0.8267282403735109,0.38257519410888696,0.7669238583116044,0.1726825793950202,0.9409890922304743,0.4212282344727952,0.8936332630843087,0.5871666959749142,0.9824813028214365,0.8995112361220348,0.7178105172499256,0.19597481133725767,0.694620326730112,0.13523094084016296,0.8466555982088201,0.5907433612019334,0.7491898271332869,0.1975250731997626,0.8766437973131194,0.47503274739229384,0.4039651188790341,0.9302573248929668,0.5761064118687442,0.9196604017247917,0.667772539515091,0.920650511147412,0.3256466241074471,0.779781336768703,0.10997023203609713,0.7133484786500358,0.09407014550749436,0.7739094124892875,0.23955292008221682,0.7057290291928418,0.20929593822795162,0.9638880552507257,0.8480364887951269,0.9808381596960821,0.8952503009527666,0.8900248149574295,0.49901708775722925,0.9724528584822701,0.6634912594451787,0.7660258864976641,0.21662485685846133,0.7235959584094027,0.11971520367643838,0.8581623703860906,0.4151242242607897,0.9315299609382016,0.6746542011744272,0.6558911221589351,0.11730020736114012,0.7024877111210116,0.0979743353609793,0.8159633912923133,0.4724972165664746,0.74932518394107,0.20745156753114935,0.8291327351577492,0.3920816716360634
25,3.6487682279197418,0.48202529129711064,0.9582029772041416,0.6477855812177008,0.8425076907273346,0.15238569526655413,0.9803017683272842,0.8113205234671366,0.7097090219408275,0.1841234015765228,0.9523047501610584,0.4115853082273924,0.926029826555728,0.6083230278118144,0.5890937675087596,0.07073066247057158,0.8608010491775705,0.2992835087616896,0.9648445605933418,0.7399943390787849,0.8151107811428658,0.34158150798243364,0.8167869740956295,0.3137708961902768,0.7651409315456594,0.309516960593462,0.9871426261846465,0.942101225048346,0.9900417909903005,0.9157082809274372,0.9560667857368818,0.6647060562688929,0.9807579528658836,0.6472609575120805,0.8974351498903563,0.13452776504979075,0.7658656243620946,0.25536300896167785,0.6932726377850362,0.1368690915641372,0.8963348721970885,0.37778122100928546,0.8692532423035352,0.5239066873854766,0.9691621094895074,0.8281846400453874,0.6835042460837626,0.16506272252061147,0.579069090227427,0.11558158924030068,0.7846460662692639,0.5274221247754722,0.6854470903942814,0.13532757323486974,0.8430320532215487,0.4330847829303118,0.39040023850339123,0.9363399658274644,0.5052527617196502,0.9495122893367585,0.6274562919362484,0.858010787357746,0.3735770436670268,0.8005054848799815,0.14778113093957918,0.7143854396058736,0.08765182059923948,0.7454917457032012,0.14865088149898503,0.68629716748085,0.17208087541299572,0.9636216424781233,0.8455827498542143,0.9756801009747141,0.8634375256065702,0.8867391505868594,0.46036214395394714,0.9503572738866858,0.4769543147321391,0.7054298247853429,0.13836487733254346,0.6670042884389169,0.10373667953214519,0.8299051112434817,0.3375505882874674,0.9194896925243727,0.5946048126307867,0.6352547211277261,0.08459042282967552,0.5965566192729692,0.08083109258185879,0.7552200305712073,0.3931536438806687,0.6905814422229488,0.14832886216484023,0.8034938304371171,0.34683939574529377
26,3.603279946496071,0.4564358649474547,0.9625597521444332,0.7690689492216508,0.8748922564435667,0.17709506527800006,0.9822408775066805,0.8644681548050507,0.8135956326771713,0.3052164129156975,0.9724195123391953,0.5369588610957899,0.9507603210751419,0.6559909382709349,0.7288608362778604,0.10206239685554999,0.909717360051618,0.3296986659813356,0.979048126337949,0.8432288174111118,0.8125705952029808,0.34790980833947815,0.8521463645206279,0.3637534803026477,0.784965282725227,0.3169942778196064,0.9877484600099766,0.9474028302263402,0.9852208854580128,0.9136373286039595,0.9733018558373547,0.7537873515866331,0.988871920456111,0.7501787624349188,0.9216960996704606,0.13073660998248324,0.8247915476298112,0.3531207985838122,0.6903087478757445,0.14345854028622518,0.9519473342037041,0.5251549648410078,0.8510387465099775,0.4824473903393284,0.9855764671489535,0.9051741121571588,0.7188702214346299,0.1869777055830819,0.58723422697994,0.14963232021564404,0.7607084055239661,0.5109538665695106,0.6472585457733554,0.1248638491116313,0.865321168531325,0.4803835484160996,0.35305955131549527,0.9276133874126358,0.5944735560482584,0.9366374567935557,0.6733897475518937,0.894371950620872,0.406373891585455,0.8426149921679428,0.14283941353977475,0.7214860399058785,0.08261239723622998,0.7660508047216298,0.14280542967664742,0.7273160574841934,0.20802651563951902,0.9604128678800449,0.8342879818521743,0.9722048713342627,0.8819836523645054,0.8954106590225188,0.47044122627735946,0.9606842217136335,0.6164740413584805,0.7802589926220929,0.1893103223980239,0.6631290308633818,0.0953873936807486,0.8121435743092952,0.3078076344384921,0.9327658436957512,0.6599964069538489,0.6766108570195122,0.11124313284962102,0.6332798161472225,0.0894839198454867,0.7234854669448049,0.3654999068336677,0.6635523030257031,0.13418992964202814,0.8152646944044701,0.36876981577748497
27,3.5681921108646075,0.48855929045241114,0.9577095215282562,0.7412312919316895,0.8969331511089863,0.20316091255605923,0.9783521459557128,0.8588319025922697,0.7736318710558203,0.2180107541340636,0.9717391906285247,0.530765246048104,0.9584360439246885,0.7203271421054439,0.6906721369579804,0.10289261219811066,0.8962197444863642,0.336158883841975,0.966443183761136,0.7621329030646627,0.8058343148714546,0.3728856810851101,0.8877769000807507,0.4479784197244455,0.8231791395102885,0.34446120667438795,0.9902467053292022,0.9549690048559558,0.9912497832890788,0.9264612352758599,0.9688642470718825,0.7471287908789792,0.9841378833470231,0.7564953545742267,0.9148891635584792,0.14718877681770046,0.8335708050635366,0.30982540755271704,0.7680039545657247,0.1914415758176553,0.9277134789421215,0.394328774751666,0.8543417447421244,0.5552785601550174,0.9826058440132858,0.9065756888820322,0.6413427046577491,0.16605215466519224,0.6138564396616664,0.15036454279739728,0.8382720502779628,0.5963836540558255,0.7391996332167687,0.2013955090170607,0.8713546839079449,0.48625869177129266,0.3804874413058061,0.9381433562526873,0.5907762953522093,0.9294432019061756,0.6770045748901373,0.9033190306342449,0.4434074205215758,0.8187131881108882,0.13585625403582022,0.6937233977734645,0.09120189140133719,0.8066193816654036,0.22430721487943084,0.7596052327021552,0.20148998959537484,0.9639126344220923,0.8420212577788141,0.9805477083162515,0.8773067273019647,0.8817859638614356,0.4464527629037409,0.9550226535520654,0.6065846005723252,0.8037268217133424,0.1782621099834964,0.7289216334082198,0.10430904813088387,0.81046007059582,0.3377894159641842,0.9299029847355749,0.676297318882076,0.6074314038836698,0.09376206186526431,0.6420758509641864,0.10174620885660987,0.7998897573576907,0.4326355262751983,0.7471274633865103,0.1915360853827212,0.8263353544864147,0.3817235139249034
28,3.535520401774796,0.5433902263297806,0.958825570945509,0.7431147773841008,0.8878064222883185,0.23510808698154084,0.9653961519208523,0.7741558413125095,0.8010740373011125,0.31815095273743027,0.9776102073176809,0.5925502459094468,0.9584178653047837,0.7057955328183418,0.7006050834341644,0.10589747439671877,0.9032125806693238,0.3763472165307465,0.9660923542975379,0.8239751817273789,0.8490651322477162,0.44965232057758403,0.8990824593721766,0.4978862051023745,0.8327046927357661,0.4044370610766452,0.9904262575277171,0.9553158213248064,0.996345341399542,0.9473764434329279,0.9861131917929808,0.8038630999379389,0.9899226111498018,0.770402587458631,0.9405509068902127,0.2544284326574527,0.8765174344524429,0.4194597341663469,0.7839044019684518,0.2376652037734233,0.9311961396214277,0.4598673666602476,0.9059661855594163,0.667675324329065,0.990248244680614,0.930350437160504,0.7615774589772681,0.25422425496643697,0.7185434968302857,0.19461842853808164,0.858837714839617,0.6289236824682183,0.7793038712581118,0.28251695304457947,0.8926671467224166,0.5320676410182107,0.4249832302303048,0.9292743122352981,0.5682687070169815,0.8721466237243535,0.5724787244959313,0.8991930025331389,0.43434616928432485,0.8200468947478858,0.16330910589814032,0.7276384621410604,0.08896116228658758,0.7899593665281106,0.25421206121188433,0.7626238195016899,0.20302395510002239,0.9622866100307897,0.8374378358786049,0.9829282170161275,0.8786561296991215,0.907698519659436,0.5122336795968547,0.96430973636856,0.5801058239153736,0.8044638678273893,0.2355490858762007,0.7379532962326671,0.1324331448063097,0.8612280875220963,0.4409243253028692,0.9457900003064085,0.6753683303439809,0.7099292727619619,0.15177547788308243,0.729077917982671,0.1294980312046272,0.8164547993258422,0.4607353773643064,0.7782097043345428,0.25158163612214723,0.8421690795147385,0.3984683559624922
29,3.4816651102391916,0.5162356214752428,0.9466475506428929,0.6945141527651065,0.8681629182979452,0.26534519365960835,0.9651694599082655,0.8264473935629126,0.7190825616837301,0.20679260488961917,0.948838533657973,0.4788882647865034,0.9452014491086261,0.6588555052929288,0.5562463535143598,0.09960546229095989,0.8765669330347696,0.35082638747745415,0.9685602793076743,0.7935327842230991,0.8159591498074336,0.39578365895871753,0.8820519080748932,0.4576588916761361,0.7879912791483236,0.3613715265223407,0.991097685836794,0.9587278957251897,0.9913084948399988,0.9232648686979871,0.965720014695442,0.7108227225939464,0.9917711212211877,0.7820468901522558,0.9036520589860421,0.23844703286435692,0.7857214146099117,0.25642588901344926,0.6964705628054899,0.20177141498372275,0.9085300731740134,0.3719132899199362,0.8864370526361269,0.6101623064220133,0.9702673918531604,0.8405585756328535,0.698302679497018,0.19815662882854024,0.5232007289576419,0.15032985027945003,0.8018671261947632,0.5763247418898197,0.6874476856228533,0.15344930873311502,0.849318171812205,0.4831547400708471,0.3901766415741224,0.9147228915971226,0.5051467152392995,0.9081385343416415,0.6480416980195296,0.8769407793868136,0.3829542032904535,0.8013161394057396,0.12976420010688838,0.6983609981982296,0.08133934408328555,0.7698093644135562,0.19097291884769643,0.705646967894236,0.1773557111884016,0.9597491065621404,0.8407331281885729,0.9784549179207757,0.8757269912896123,0.8769333204980105,0.44206984191491283,0.9651119283472226,0.5527286395649746,0.7264130351535574,0.13713487511985895,0.6474488397476371,0.08443218077539989,0.8412558290587573,0.374036491167089,0.9045099102011837,0.6087574283415754,0.6306406585753488,0.10228391107937257,0.5598453107758199,0.08166096061006138,0.7567615134450066,0.3940208759749677,0.6890093746314019,0.14698243625011725,0.8005826010607474,0.3555864500553721
