epoch,train_loss,train_accuracy,train_1st degree av block_rocauc,train_1st degree av block_prauc,train_abnormal QRS_rocauc,train_abnormal QRS_prauc,train_anterior myocardial infarction_rocauc,train_anterior myocardial infarction_prauc,train_atrial fibrillation_rocauc,train_atrial fibrillation_prauc,train_complete right bundle branch block_rocauc,train_complete right bundle branch block_prauc,train_incomplete right bundle branch block_rocauc,train_incomplete right bundle branch block_prauc,train_left anterior fascicular block_rocauc,train_left anterior fascicular block_prauc,train_left atrial enlargement_rocauc,train_left atrial enlargement_prauc,train_left axis deviation_rocauc,train_left axis deviation_prauc,train_left bundle branch block_rocauc,train_left bundle branch block_prauc,train_left ventricular hypertrophy_rocauc,train_left ventricular hypertrophy_prauc,train_myocardial infarction_rocauc,train_myocardial infarction_prauc,train_myocardial ischemia_rocauc,train_myocardial ischemia_prauc,train_nonspecific intraventricular conduction disorder_rocauc,train_nonspecific intraventricular conduction disorder_prauc,train_nonspecific st t abnormality_rocauc,train_nonspecific st t abnormality_prauc,train_premature atrial contraction_rocauc,train_premature atrial contraction_prauc,train_prolonged pr interval_rocauc,train_prolonged pr interval_prauc,train_qwave abnormal_rocauc,train_qwave abnormal_prauc,train_right axis deviation_rocauc,train_right axis deviation_prauc,train_s t changes_rocauc,train_s t changes_prauc,train_sinus arrhythmia_rocauc,train_sinus arrhythmia_prauc,train_sinus bradycardia_rocauc,train_sinus bradycardia_prauc,train_sinus rhythm_rocauc,train_sinus rhythm_prauc,train_sinus tachycardia_rocauc,train_sinus tachycardia_prauc,train_st depression_rocauc,train_st depression_prauc,train_t wave abnormal_rocauc,train_t wave abnormal_prauc,train_ventricular ectopics_rocauc,train_ventricular ectopics_prauc,train_mean_rocaucs,train_mean_praucs,valid_accuracy,valid_abnormal QRS_rocauc,valid_abnormal QRS_prauc,valid_atrial fibrillation_rocauc,valid_atrial fibrillation_prauc,valid_incomplete right bundle branch block_rocauc,valid_incomplete right bundle branch block_prauc,valid_left anterior fascicular block_rocauc,valid_left anterior fascicular block_prauc,valid_left axis deviation_rocauc,valid_left axis deviation_prauc,valid_left ventricular hypertrophy_rocauc,valid_left ventricular hypertrophy_prauc,valid_myocardial infarction_rocauc,valid_myocardial infarction_prauc,valid_myocardial ischemia_rocauc,valid_myocardial ischemia_prauc,valid_sinus rhythm_rocauc,valid_sinus rhythm_prauc,valid_t wave abnormal_rocauc,valid_t wave abnormal_prauc,valid_ventricular ectopics_rocauc,valid_ventricular ectopics_prauc,valid_mean_rocaucs,valid_mean_praucs
0,5.139081937649279,0.4296618578734448,0.3568491549157307,0.026436771118914952,0.3428213802929848,0.11313560052657215,0.6372967588275507,0.024096147309327243,0.3618056422706192,0.053360198075708826,0.8613151131068587,0.4084280244485664,0.8074515992988008,0.27506160722522527,0.9268347515957446,0.38779762920092203,0.47435640809150215,0.017689064287475596,0.784733625132068,0.5249774221435237,0.8332475474216711,0.07727362811806578,0.5548315184772357,0.23441204580402414,0.5906428270804113,0.37073888437612296,0.7151722694778023,0.20875845634821338,0.3817967856925213,0.02893377902260368,0.433889737126839,0.015081500673657551,0.43298483926891945,0.014858822063255991,0.35674234130543436,0.013005142484443247,0.5147939341737792,0.026483535229039547,0.6709533680324397,0.02366637487267946,0.6809383325831215,0.09853734449204819,0.5743467933491686,0.04985344700520864,0.6386056664245766,0.06023799377462235,0.8194346838811406,0.9564377715717147,0.37819538049476736,0.02944280184790938,0.45251321255078303,0.04788924388657881,0.7057416956658705,0.20610415716888617,0.7979236332127695,0.19848941497751257,0.5957858888796708,0.16634025215010453,0.5011446886446886,0.34058228279728414,0.11338918449766365,0.3855693819566771,0.04960957978829619,0.7839895459873139,0.21067642065787923,0.9257976357988636,0.34913151475016363,0.7762807129500232,0.4807480618328134,0.520252083138283,0.1939807616700182,0.5925879047513074,0.3672551491045576,0.7133573564095145,0.19990929537502378,0.8093020324402069,0.9544215023578564,0.6851349479340219,0.20803726816120827,0.7945265238443757,0.2120586453413981,0.6661254916370791,0.3035652166851707
1,4.61020465088604,0.5495763682161667,0.31559915159438084,0.024202874961252258,0.3111831718890469,0.10515568621511183,0.5714771408118962,0.024126559403135184,0.7130911014603386,0.20152889724246473,0.8961337309224285,0.5331922700921098,0.834818220024492,0.36731140379094046,0.8696466351477343,0.23768561081816,0.46553459000167596,0.01885214850326668,0.6453879445977266,0.3965733937504879,0.9558182296351465,0.634961634810277,0.7049973603863817,0.29617894991839827,0.6529334125933164,0.46475714522048184,0.8559025053915524,0.40626849258706693,0.37048856495950805,0.027606866077070497,0.5853581545018851,0.02720980775832909,0.567363163549937,0.02753719102592231,0.4596782834992721,0.015446549334537108,0.47258288784011127,0.02689321379961707,0.7454143466682807,0.04191317377385097,0.749983837133924,0.12016965228033916,0.579158912910823,0.04891629967516967,0.6766627123413708,0.07375070623076184,0.8346831988091641,0.9594050230891236,0.6358882512574862,0.19860853852427152,0.4840249947886726,0.04596717953720389,0.7616904778582261,0.3487427843324848,0.8988366744032524,0.43272039274222995,0.6523828761102974,0.2261363868701505,0.5581501831501832,0.30882410165377944,0.10427091566945211,0.7327147008090056,0.20382784727804598,0.8207110969387756,0.27787254875578293,0.8649270894175118,0.21254486602604414,0.6360753386727372,0.3519312891303021,0.6870329429488216,0.25528064242564175,0.6542747858017136,0.4668744747270305,0.8581893263894369,0.4058025163149853,0.8226413671474686,0.9570553953649815,0.7486378444701058,0.31568204537935723,0.8803542852889733,0.4441324410410724,0.7285802617762118,0.36320681655569964
2,4.3457780928204475,0.5734676742233418,0.3830728730739492,0.02872175984684601,0.36119120090787143,0.11399678562348077,0.5845938543470591,0.023228809626395883,0.7544084660943414,0.2206843508065786,0.9338801467889531,0.7174828528452223,0.8911312634942441,0.46626616901429646,0.9320138593085254,0.49344998566401527,0.5966034537824958,0.025304774511137537,0.7250968809227203,0.45647354217927816,0.9657010318619705,0.7243035567288032,0.6092476868649082,0.21153186802452964,0.6941679365994793,0.5580899662341676,0.7717870240916295,0.22021214500762865,0.39993987990043267,0.031152464581236612,0.5164900537161605,0.019771727840814317,0.6042541418699308,0.03388854078099999,0.43461532121070423,0.014667052878835723,0.46056904492422457,0.02374923458893161,0.7611965139502511,0.03909696591369379,0.7708997154987982,0.12054456488468801,0.5904980558875592,0.050345809894751174,0.7809882330737745,0.1381846802260288,0.8489859900596971,0.9639743248989133,0.7004646426800518,0.27448385356029714,0.4165500935462252,0.038967919032838465,0.7953227086656063,0.40409808315719314,0.9171765414405949,0.506931088621661,0.6741054301689686,0.25628158803604684,0.5673076923076923,0.36421778941139893,0.11343216859502729,0.779912351201231,0.2146900626208116,0.8671465630170987,0.38912728037004435,0.9298720995061859,0.4423536703164339,0.7068363494676192,0.40271126343909447,0.582012664799857,0.1725392827493685,0.6787637698898408,0.5371715808399875,0.7559816582936602,0.21320447116380414,0.8378284741269987,0.9615026271305696,0.7844218721501974,0.3475612122578644,0.8948949507730348,0.4475929340229109,0.7438080493306476,0.3856260503187197
3,4.15379819263257,0.6101060987710861,0.4518779576620885,0.038079384599443294,0.35834664378106845,0.12320731867687534,0.5879666294353676,0.03075916348347726,0.7677609449345885,0.22911257498884807,0.9445983367640836,0.7292471729822161,0.9016830102053547,0.5138463842175275,0.9339506467179214,0.4265722596082355,0.532977582984698,0.032058385545412474,0.6908951289856005,0.4668958606226795,0.9764268491854942,0.8073873705505085,0.609373675199569,0.23925326513199296,0.6732513577315966,0.5216925806843374,0.7257571901247137,0.17889243329084975,0.3699163274203237,0.02873607080917983,0.5558046850565871,0.022398254986435613,0.6585177960402036,0.050023407849741575,0.4799438603432372,0.018661633836155093,0.45884164643854564,0.024176707607442588,0.7006782212673243,0.03449805164046608,0.7683758752713362,0.12711169210702203,0.6071374057992209,0.06217826997870062,0.8316434771325972,0.3021162359725784,0.8506230340069103,0.9658465424808489,0.69128445354785,0.1649008320860122,0.39237088727067904,0.039579038567039496,0.8402715357213104,0.44533275478847384,0.9371339224351563,0.5937235037441938,0.6776818178319788,0.2672698944754331,0.6176739926739927,0.358413815928032,0.1235206942070718,0.7848250724674277,0.21512595077263622,0.882228609349145,0.4213980157913826,0.9367010367440132,0.3964253354456581,0.6734950903766473,0.4093708112259158,0.5631308993880382,0.1878693551075828,0.6535929676198955,0.4955877125552033,0.7058622735415918,0.16596873401049056,0.8372240864693306,0.962502219284167,0.8254092884913569,0.3907907182053926,0.9133948618709142,0.5468747778634991,0.7394798183860356,0.39231221131536365
4,4.0554905332469655,0.607739867185711,0.4056987389498689,0.04830400743928357,0.3343729643565002,0.10994745626938288,0.49785871234356627,0.018892495123411318,0.7767201684361257,0.26504628948319825,0.9307527378208653,0.7044694140010054,0.858593592139054,0.3990795243491614,0.930896833896995,0.6662671624097533,0.4293509848750763,0.018077378057996144,0.6131355315538973,0.41601442082501033,0.9398671331298634,0.6498322662477708,0.6664568848600182,0.2726102165372291,0.5802206681293058,0.39078840084722294,0.724324478932818,0.1848311588044808,0.37151743734015685,0.027839590449056234,0.5063504354985187,0.018476518530656485,0.6371730649167607,0.052022360585834156,0.4038113821430632,0.013454605290409611,0.40797260839544136,0.020436676187464135,0.5666468710282636,0.02168448152993,0.7427106342969066,0.09532402936978512,0.581201449721201,0.06265784128506688,0.8252530150326146,0.1877901539913753,0.876575634114743,0.9714467205184025,0.7090007775158402,0.3307727896681438,0.35921209368072765,0.03379110541886157,0.8031746808865143,0.4067047450685365,0.9208309120600434,0.5755185399062417,0.6444326083723984,0.25785482771091367,0.5915750915750916,0.3424187903039785,0.11055838126019475,0.7881086371421581,0.2694462858596,0.8421739261583011,0.30684497688533713,0.9252359555036372,0.5837766496339498,0.6054577278438001,0.3764730394759015,0.6456505179120102,0.22700483687201617,0.5665060643151218,0.3660435339803863,0.7133035821270651,0.17939529067343857,0.8613992284676422,0.9672488647962144,0.7774756411236988,0.32436127136238346,0.8955803240999176,0.5026717108085994,0.7239373086361209,0.3830749856007292
5,3.907335476632901,0.5110296923898939,0.5310804450874578,0.08175796826974777,0.37772291949552644,0.11911023227731558,0.5883022234844104,0.02866723465172533,0.8513056665017066,0.40131877030055185,0.9638496151388483,0.8077772389061394,0.9210733798222734,0.552268800790663,0.9216914061575249,0.5797986108597284,0.46195937805352383,0.019845584788066344,0.5689387694047219,0.3426995134153755,0.9847687095426789,0.8746128691626552,0.7280641668784359,0.33503480327292945,0.6658535363857137,0.4735820976175848,0.7921210311026815,0.3049889260049615,0.4068162732435924,0.0304088601743258,0.5612372099898781,0.02247995325370737,0.6323000206323135,0.05979922591498354,0.47936612842433546,0.018258145142551634,0.4348557218888438,0.021269076327702516,0.6000334760636687,0.028356952905740078,0.6890794639489879,0.0831896373435236,0.5986450889517595,0.07737341099008468,0.8356741928036896,0.2144705580752001,0.8859364864619717,0.9739910141918471,0.6802259774133941,0.3175124866395701,0.4003746229356637,0.03677982183719557,0.8114888250533562,0.4267823659893355,0.9197842786237012,0.5211935244866244,0.6775018153144688,0.2871602845774013,0.5279304029304029,0.3866425971056353,0.12038405464537336,0.8528804550841266,0.3953435947411522,0.8760568205322671,0.437550693435641,0.9191379493442361,0.5244382545013674,0.5557768802070311,0.3104883204980425,0.7048476053484948,0.29039789423928924,0.648933737621008,0.444184908683659,0.7686811564977745,0.2619626148479067,0.8694147421771143,0.9693675524066327,0.781741152206807,0.33839930026966164,0.8903661113385352,0.4758657838174519,0.7504072006784572,0.41530754291692523
6,3.812271660916196,0.6388825280512938,0.5749143755995036,0.14792441905869527,0.37192875557244187,0.14071365799773825,0.6517829303033009,0.0319128404103466,0.8393333868657601,0.46211008563682193,0.9549001782711314,0.7841440256790867,0.9181314939330025,0.5658713891412045,0.9140831921171216,0.48828253884297346,0.5166269807388856,0.03235232133318165,0.5801269331569705,0.411047745131245,0.9687917557123693,0.8442372307518672,0.8323710002877519,0.4896100321121459,0.7591132027285591,0.5597360721683545,0.8955667822262203,0.4966860879057375,0.4578481256793019,0.03543815781994763,0.7362113237142922,0.062011243484231246,0.6847985401968376,0.1131724107074995,0.5893701073562283,0.0355220669932793,0.5136753961982996,0.028042917080181202,0.7048791835623069,0.07311447281265115,0.8223914785198986,0.1460069225899821,0.6110971585531701,0.09073254065807254,0.8489880241236311,0.22295030731711513,0.8472479242822895,0.9660798672927823,0.7985926111759224,0.47108826608282484,0.5002938699072319,0.06393839415929843,0.8866259485939374,0.5035692878936071,0.9201191783456482,0.5817976520718378,0.7296225865822967,0.3277071464123225,0.6465201465201466,0.37114701487298296,0.1363746188326314,0.8412072999450564,0.40922871871331595,0.8684651647821291,0.4296495922338426,0.9063105652312429,0.4367115066726199,0.560594155699719,0.35784523664965867,0.8070469227430185,0.4021054652230912,0.7332402358962946,0.5339833692694118,0.8905599831663115,0.498886352669602,0.8295451937337496,0.9613317430129029,0.8479600694676588,0.4016219040621538,0.8844727277238161,0.5327086060282724,0.7764135757510892,0.4636770103061366
7,3.708460059951038,0.6010991527364323,0.5901442595116819,0.12759990238273192,0.45199601942354584,0.14179610693159328,0.5138788450587527,0.023102489945973463,0.9014633985002194,0.46637340916524056,0.9469997477246839,0.7771890464090037,0.9121248581774203,0.5232830489841221,0.9119921903923053,0.5520963862382676,0.48422255109365564,0.030903320640209432,0.5366785105801318,0.29035106524819304,0.9089981281064703,0.5866072835484335,0.7172905841935381,0.3344079411426498,0.5852331777062945,0.33939512560122065,0.7689197293047483,0.26242141750806447,0.40522596183788373,0.0310377482898777,0.581925357189541,0.027226921209599856,0.74522040401821,0.06522358841908099,0.5793763192856806,0.028820630864866352,0.46700550252347295,0.025561787236853664,0.6803805679961267,0.09363456570415804,0.7973591962363115,0.13323847268329891,0.6366700119185104,0.14142307893555925,0.8527114230010295,0.15693250357561597,0.8580948700603901,0.9678898085546127,0.8464029575733123,0.4681062215535052,0.46613886892680667,0.04777951761811099,0.8430291035997397,0.45949839227270634,0.9329232621231976,0.46879756907111664,0.7008298446690243,0.280396198138321,0.5421245421245421,0.4546126305021512,0.14189865590191258,0.8936816413817964,0.43744922717349793,0.8622147338665196,0.3887439984569455,0.8956195574257951,0.45901546808478494,0.5206544732720442,0.2607593364973019,0.6537617774978509,0.24441044221366093,0.5617173417158117,0.32586654660566405,0.7480581346753523,0.24519698812875515,0.8405001298759494,0.962179882192245,0.81067495628854,0.3534646947786663,0.9092536770330675,0.41248959599315327,0.7409771866849888,0.3846795305478716
8,3.64556062004055,0.5529348904663766,0.6154154145177533,0.17053959190644405,0.3313298415339763,0.11869049825570412,0.5508521966222477,0.029074025881478394,0.8541514043241702,0.5090552327457314,0.9470448764047907,0.7509033066908339,0.9142842430282488,0.5185941734519334,0.9506949046482058,0.6140057341135768,0.42527661565997227,0.017181349895149724,0.6195943615589155,0.39652742675448943,0.9665423894378352,0.6323838883527785,0.5785988928529137,0.22843207835365414,0.6644073994233431,0.526710723699118,0.7905701325364385,0.3150506548425695,0.401758801709815,0.031105138124278817,0.5621984069247241,0.02356330959651875,0.6753565772867705,0.08051112026117442,0.5370299184206563,0.028678612870071844,0.48947022491772313,0.030794438036036043,0.6119390395206681,0.03725921511591104,0.7888886378527372,0.12792495578066163,0.6199007183045793,0.12314469095651633,0.8378304656049528,0.19158103428505388,0.8653574918443002,0.9698467634995156,0.8261667486540855,0.5444003118082543,0.455847624652503,0.04167170273441165,0.8674970481261485,0.5077426010515514,0.8962714459327089,0.5233590815146565,0.690528734159303,0.2995826540954842,0.5986721611721612,0.3314125823630292,0.11288971398594774,0.8393543628918007,0.4757878494962757,0.8469754033370105,0.3804880933893043,0.939639694950353,0.5084417979502626,0.5992796253315396,0.34430756340049995,0.5193477585517188,0.15896509920681995,0.6327256036497162,0.48149647525528233,0.7689266477872175,0.28756121093161036,0.8453106403193965,0.9644486986305554,0.8259869376411697,0.3634456237164828,0.85235011722675,0.46310897534604417,0.7273917612772457,0.41281282739173497
9,3.5243698339154363,0.5985802610487749,0.6801335780503942,0.2234037248234995,0.44414648457226036,0.1533027548168172,0.5884960043447902,0.02905877859742876,0.9503374134711404,0.6306809868835703,0.9600703664876992,0.7607410805906819,0.8959319486459154,0.3348725056855857,0.8531146422672812,0.579279618307495,0.4598021079393991,0.019843458144969073,0.6214743263866662,0.3569603725200196,0.9662930983042457,0.805855000227675,0.6809157903034179,0.2959530773946826,0.6955664646905797,0.4420879168897509,0.8398392238488885,0.3846266446967358,0.4541937075969974,0.03582508649912745,0.6794134474496628,0.03794256785533878,0.7974640341263823,0.08248511678018629,0.6460906806820983,0.03518376814726676,0.5322005585571478,0.028466666246870144,0.6427576332990378,0.06508175269527036,0.7854024988138542,0.129309932221456,0.6305260114343734,0.152042238029724,0.8368080422214097,0.16755131363493592,0.8513600950001528,0.9657529416552545,0.8516349776013865,0.5494703106116421,0.59030115932387,0.07025486111881116,0.8553593425844737,0.5131941288279409,0.939662846167403,0.5484536911160742,0.7307146845989233,0.31102519611180773,0.5370879120879121,0.440244707203819,0.14661596016643078,0.9342755912985099,0.5540874522236081,0.8478038385962493,0.23556538734456584,0.8333452251367279,0.4710529305928786,0.5951635492872187,0.31503378780542,0.6338905745972032,0.219250594685457,0.6603940413931235,0.40858058123285407,0.8258134090849312,0.3589981715127817,0.8233326423617096,0.9582380749987193,0.8006655801870621,0.3750934209681954,0.9026687176179192,0.4679757024602055,0.7543270797058613,0.41004473309010153
10,3.4554753416631523,0.623082207465079,0.682632146548586,0.24081666250180378,0.44839950438287346,0.18603256528975481,0.6477181068543163,0.045572025770337476,0.8897206067181309,0.5692326888468029,0.9558310964522349,0.6721143508114139,0.9207943825782426,0.5268738725448234,0.9471407138049263,0.6769535390778787,0.4983983328748106,0.02306231020288531,0.7930325158094089,0.583522239890181,0.9809701137943305,0.8655987998881526,0.6959790581510397,0.39125635116951885,0.7363221936973383,0.6203409644250508,0.7345650388252465,0.2968835086635685,0.41427453070829545,0.03287136604691876,0.5363018657965137,0.02168719649997619,0.7068376022572287,0.12924377349279662,0.5938728195490695,0.052614537085722335,0.5042691419717494,0.027772698216508056,0.676530064152999,0.07048174261439241,0.7634342093143295,0.14217007730599057,0.650774451017276,0.16751325541993758,0.8974347578453196,0.2485616861160487,0.8762164090667879,0.9718009609180153,0.8376367448614851,0.5914083169333663,0.4504846598877754,0.05411654739895175,0.8421188788270302,0.5252489681487195,0.9248356923371035,0.595575412245358,0.72616761622535,0.3455306080564768,0.592948717948718,0.43937017981967885,0.158943172106985,0.8627651080110793,0.49099903448916976,0.8669063275648098,0.3576558619842815,0.9283853475282748,0.5296047025174957,0.7537960032705255,0.4925831673996992,0.6240802486999004,0.2500583663414786,0.6861455435629242,0.5404252149042277,0.6984951968460213,0.25860221892843355,0.848150424401086,0.9637895507165212,0.787893115652313,0.381992062819913,0.877318174487986,0.48388237431255543,0.7612096063495091,0.4462305205927965
11,3.3823831749275417,0.583237920769407,0.6472724742462528,0.14483188863521113,0.41059812226944337,0.12841203074302557,0.602394611757576,0.03625353584908726,0.9334096111458758,0.5576698972740506,0.9602776843900496,0.7305080213274776,0.9322960775996403,0.547613966794516,0.9062927247948582,0.5891123600885609,0.4357012076538501,0.021989687451632944,0.7114194020627587,0.5151724884794875,0.9570695473642105,0.7686283992538514,0.6523814299514995,0.31884058162582013,0.6843888007012704,0.4755606514761256,0.7344681258239381,0.25533602135550604,0.4000179807816584,0.032386569540038386,0.5050562928115884,0.01873607562955531,0.7609726394087905,0.1045848140634046,0.5787603716367348,0.03576705681268848,0.46718180157221734,0.02236339187061852,0.6432348090540458,0.06578028510952344,0.7357759826761883,0.11180988739804128,0.6746722409657188,0.2094546343410265,0.8652147299740666,0.23570687941478843,0.893780193167631,0.9763216063111178,0.8057614611533566,0.48586225744996514,0.4069229875322375,0.03749926324670383,0.8266931604908662,0.49716848606743574,0.9424288995827025,0.5208275836197153,0.7064608655766305,0.31274808597144355,0.5615842490842491,0.4089711265557461,0.1261299771803122,0.9055594206785338,0.4764062037630034,0.8793242381412023,0.39882434474235295,0.8807188512186055,0.4717437948577757,0.6713284439078793,0.42367278809005554,0.5688366555736184,0.20142580444047176,0.6452909758540113,0.4044957972060908,0.7079699916123809,0.21777343100747573,0.8667086592831066,0.9690877616591261,0.7451347767787182,0.31427042934048294,0.892982521429546,0.45296763222127917,0.7429841510030317,0.4051634513189478
12,3.2565323767448398,0.742462407449813,0.6935848790895781,0.26557553519473764,0.4190472729747056,0.14369813871937034,0.6756207209013975,0.05664742083861614,0.9556044029123997,0.7202732716943829,0.9663465927161452,0.786334011561062,0.9380180896871562,0.6535445436821907,0.9622312603582573,0.7391935632717032,0.5111987047525084,0.03756535661703127,0.6957100428373197,0.46974671084157044,0.9783865913194529,0.8461536909520402,0.747785842965707,0.5135642209444179,0.7529817058129482,0.6307568041032914,0.8357580307691354,0.45860235920327547,0.448818391426549,0.052039159791240394,0.7057096603542707,0.049349138998881534,0.7917298587088459,0.18057244925785526,0.6348232222754244,0.0673197704578983,0.5690200098233925,0.03518106859167833,0.7159058585002723,0.12802071065971524,0.8272187878545622,0.17082888952598285,0.6891519702524741,0.22446973849248664,0.8770480062954656,0.2151820903568283,0.8495262372385629,0.9661292464291278,0.892677268043837,0.6031400277587683,0.5863838386753412,0.10829767303287802,0.9006150618362411,0.5925362090331368,0.9324405010145796,0.6156553844793783,0.7612349188665383,0.3826065623885017,0.6753663003663004,0.4092126244847609,0.13717982388073002,0.9374050347991679,0.6103085838629189,0.8621705650165471,0.4265608987234301,0.9391792332607657,0.577058715000996,0.6598656507379392,0.37632133151654434,0.6546751453302806,0.340785138170872,0.6893685323244686,0.5193088744033302,0.8005394963337045,0.39099546072749813,0.8263385510798649,0.9599774832179434,0.8239908389123722,0.42639291241593286,0.8832343005057084,0.5225197536666824,0.7714527247986891,0.48067354323517075
13,3.185805294834178,0.6619342034959164,0.6662946754775436,0.26661481466532977,0.39387313722755446,0.12636715485032857,0.6575066935825049,0.043199345411590644,0.8873895142003017,0.5568431561610953,0.975948383065938,0.7788519944606636,0.9405649027582688,0.6257414744202106,0.894965653945091,0.605134549767335,0.533784582886669,0.04039057068017843,0.6527472708741016,0.4051286774723566,0.958446394671181,0.6734265069135096,0.8047147124442965,0.5288440417791708,0.7282519689791109,0.5875142137662437,0.6475155341662557,0.2040317770099367,0.47610807822611056,0.040019185727491316,0.7250075109550445,0.05723176906894852,0.7112102459532531,0.10573979206380853,0.6359296051266027,0.05347926479390053,0.5777827606580249,0.03369283884260686,0.6934175089269504,0.14371488175535224,0.7952917397326696,0.1709647808802438,0.6783061258453484,0.20087736056211775,0.8862870991822298,0.18242721448328225,0.8641751789220209,0.9692164226784882,0.8834404191642261,0.5579376510268899,0.6065508382056131,0.10180748407626675,0.8543086906417867,0.5589952186158014,0.8868222186836592,0.4809264062856836,0.7413570905371244,0.3370043906747715,0.6243131868131868,0.38281112414879004,0.12338496623459985,0.8594710944431915,0.49245069470902064,0.8797713130860452,0.3800491109849468,0.860170644613179,0.4743802810845249,0.6144124022255528,0.32343588125253486,0.7247235958498949,0.36460247542397356,0.6622852453544008,0.47983024556667225,0.6081111491038107,0.16463807994702162,0.8366368213070875,0.9608587923292825,0.7423914781774313,0.3468535072588861,0.8306393923229918,0.4076552524984635,0.7274022055120342,0.41073993520817514
14,3.1268884071675194,0.748721471643386,0.688618464579796,0.25272195529080427,0.4080595629399373,0.14695245852684619,0.6713670571805416,0.05286208180075637,0.9226011311849851,0.6260890999481036,0.965921723747739,0.736162653505617,0.9498796923764888,0.7222246351989129,0.9567257589283541,0.7389473979874843,0.519598207650688,0.032110777574743794,0.7033225402400127,0.5188983752399738,0.9602743086480597,0.6191405668822527,0.6234383379222979,0.36709860612213424,0.7165997871676595,0.6153175918807973,0.8310005773458079,0.4271013053637107,0.45996697831122624,0.05058167795032794,0.5995750749897858,0.02805417949765673,0.7469890554955642,0.1303901179963068,0.6370760770279252,0.08409604590454105,0.5160289766350372,0.033630966844132006,0.7764827815771953,0.12137196047657016,0.8257474456588801,0.16724885953130814,0.6836613865480531,0.27524961856752916,0.9006966549441143,0.3019156874458203,0.8757259884286388,0.971946280800976,0.89237661111828,0.48502180185740373,0.5315912082781388,0.0745473918139441,0.8801402609188772,0.5679605857770222,0.8976956026919733,0.5509698242203841,0.7459689352791132,0.359207870518743,0.6872710622710623,0.3853099457431979,0.1279625323195938,0.8807668094391818,0.51909699797386,0.8854141529922781,0.47571664066511604,0.919018478203154,0.547124819941756,0.646437474209329,0.3905670528032197,0.5268057766126767,0.21495437655609395,0.6416081562256593,0.47975127548943947,0.7883029245611113,0.3529110793638015,0.8436366431602735,0.9615057473776459,0.7803039825164857,0.3316004126821165,0.8354948953642712,0.4644082961574881,0.7393726580934199,0.44232720284819377
15,3.0005023683921843,0.6226242271582322,0.6116086493265631,0.15625135578788849,0.5390208310956284,0.17222432615958932,0.6761444232832735,0.05071708662584262,0.9142368074109631,0.5542989631482512,0.9375455889583906,0.6869948577804535,0.919474619201175,0.5590607711366103,0.9442167700890379,0.5669002398237025,0.473328210528313,0.021100476292753148,0.7223210501204551,0.4215009943956009,0.9773346180961495,0.7837722546672587,0.6485956385020828,0.31895176415165644,0.7358841796389565,0.51850527963101,0.7424273562481898,0.3145721868998911,0.4607463129352471,0.03742734487399592,0.5458888556589485,0.022634676455549126,0.6961982283005672,0.08015085343872078,0.4886495535128873,0.04505048749846451,0.49370472400775434,0.0253769732243459,0.7674707226290625,0.11203320843172455,0.7232135253644032,0.12843247383007675,0.7129430987790673,0.3221035890423888,0.8923287493491373,0.2553940366023558,0.855468486337109,0.9680161163425074,0.892795172720526,0.4837364490261292,0.4075446106371888,0.04353422205820216,0.8296923425599028,0.5314163594931139,0.8988849275364316,0.44767666665726125,0.722506224178793,0.3195494079064942,0.5345695970695971,0.5230175206346341,0.16999636689041187,0.8660669582488352,0.4444052726549211,0.8475334390512962,0.3559684336154979,0.9159653268199438,0.42080269437788415,0.6698487305237288,0.3280268963153541,0.5465051578418773,0.18542801797820097,0.6675876265717147,0.40146272719431664,0.6908007984311938,0.23629663547066188,0.8225785239461741,0.9576246765498054,0.7140674148649452,0.2748356994242621,0.8404051869218777,0.4044055888364364,0.736761516714202,0.37993209175525017
16,2.896637168742984,0.7505533928707733,0.7420231139382442,0.26331228346278723,0.4548990463324707,0.20914584431026964,0.6918181658486028,0.06379901768525913,0.9400360176543812,0.6751495428309474,0.9795458324991235,0.8435759532883743,0.9665646082272019,0.7510299644869872,0.9131516100495013,0.6854736629335227,0.5514342272944317,0.025268930710888267,0.7682856692505653,0.6271601826591459,0.9775014751935432,0.7903536378355345,0.8403161359157145,0.5369685914916931,0.7235489715021789,0.6415129919886398,0.6620888993743461,0.22349176518992173,0.5058050802907195,0.05949108676425872,0.631972270717404,0.03295964915606468,0.7583289567820022,0.13100387970681682,0.6149619079090826,0.050428558489315656,0.4950380003938849,0.027051734721564136,0.7973540670580403,0.2217754575046064,0.7865172151903135,0.18357446068886563,0.6790003916802411,0.3618068904484807,0.9037279064712196,0.2754975570556102,0.8522314772337449,0.9675903329130456,0.8992859889287508,0.6188349221673817,0.517997889186953,0.06320694198815122,0.8672946435240245,0.6255324675120487,0.9311736264917972,0.58646259275014,0.7574778961088329,0.39042440373112297,0.6730769230769231,0.4252309173511448,0.15421533456735884,0.8951627719868658,0.5508111480218743,0.8699507463458357,0.411957609074962,0.8569291602506238,0.5097137080088864,0.6782615898865287,0.43833030324340594,0.7578654960805509,0.33261476776657606,0.6358451096027595,0.4822374441983831,0.6333283650572376,0.1852290211683997,0.8236233604755244,0.9576619560557177,0.7286022441669469,0.3090473507130432,0.865339130578608,0.4172026877732235,0.742739899252966,0.43172921187198465
17,2.7875549936738597,0.7861995267536829,0.7128832505652938,0.21374670413327998,0.3814934188764504,0.14335812083961694,0.7451011320169166,0.0821259060151677,0.8124846344837735,0.49033139910071954,0.939668263953625,0.703096645926134,0.923569065822801,0.6450416090143737,0.8539969042966274,0.653846855205467,0.47108650899811216,0.021884904645507817,0.5620789042453971,0.41152877534879156,0.9587896119854227,0.7549750498373634,0.6706050791007593,0.3754034104126073,0.8255831503479133,0.7444989909659364,0.8434032785648973,0.4149870348993661,0.525720386456219,0.09368624220442515,0.6356076413958673,0.04300251214162132,0.7226926642747474,0.0916936661176244,0.6052082794753805,0.05580500946063341,0.5203782006107587,0.029782195681498334,0.5993297222054106,0.18225767063532572,0.8275328340803589,0.2479180790233868,0.7042383836549986,0.3858319271254237,0.8992864521108176,0.3295989717099233,0.8733658978411685,0.9718531554270349,0.8016476523541307,0.4637076493514494,0.5207951931592342,0.06778581607131214,0.89842519256706,0.6509705327291698,0.8661826302966718,0.46354557741326413,0.7296723827311411,0.36045423746060834,0.700091575091575,0.3617743278073633,0.11969108901152382,0.7798644604409259,0.44471936945857726,0.8335459183673469,0.37960619280384,0.792227240747624,0.470101698262325,0.5028549601692328,0.29138591540130865,0.5749775514720277,0.20406000031218213,0.7301644041393124,0.5573903195860032,0.8056591587247313,0.33841501056832124,0.8392656708174753,0.9616185477074857,0.7740584185142971,0.35965495613079324,0.7990646669891953,0.36856569870314754,0.7084960707445028,0.4086553452677734
18,2.707093975323956,0.7569651171666285,0.572440800259331,0.15654660175983748,0.4714336594637951,0.193041695383192,0.7509204133406138,0.09667953291357785,0.8091521524811042,0.46276237827864813,0.8237628276346458,0.5705183071553321,0.8207575417321654,0.5501648247372875,0.8288689114517687,0.5170089527060612,0.5259716727855727,0.026314832641462234,0.6102294414980964,0.41590437532321445,0.8910390003602346,0.5406703614952828,0.7561314223492693,0.5123095299946513,0.8096917415017154,0.7166002674114342,0.8038021791931078,0.34592089571825113,0.5811331709593969,0.10974140556089942,0.760677874813766,0.07690088676414042,0.6975423431341289,0.11449028986557691,0.5432688236823628,0.055974740487041444,0.5438120932130799,0.031513796660322474,0.7060135871209828,0.23912475523906765,0.8324259245420087,0.2617500810087813,0.7258745143921476,0.4308340412165383,0.9346068198630704,0.36703663107573004,0.8630266557079602,0.9699850038255335,0.8142399537027637,0.43027019537304184,0.5630843740313308,0.08892780877294482,0.9102788348780628,0.6705610873695997,0.8458528959577432,0.47122616894991576,0.7331866529648232,0.34899183139582834,0.7122252747252747,0.4338582503434927,0.14476952807294471,0.7755290405216784,0.42102082509404265,0.7412007032542748,0.3456185829796465,0.7642212140922848,0.38712292569098017,0.5364899836320322,0.29720458386272836,0.6464207896775072,0.3042619765363185,0.700803104484255,0.5131168567745926,0.7288963705281862,0.24313151167490848,0.8380000633896639,0.9620614386598016,0.7777184677107498,0.3620446972996329,0.7701570052803725,0.38612143100494545,0.7012086357194999,0.3969522143318674
19,2.620253497785707,0.7932982215098084,0.7629902976726637,0.25140471599228303,0.45538446130582927,0.18986878748756464,0.7055782537983977,0.1067956143271922,0.9282479473439014,0.6283978662352416,0.9170481767071272,0.6422092015536139,0.8696516558565937,0.5692276971992561,0.7579890906593808,0.446010295963935,0.5756533948069935,0.035303470729679966,0.6613320502266306,0.5188488468470254,0.985578242718511,0.864943812608502,0.7517380189148261,0.4316234548525083,0.7085165131704398,0.5844148256818557,0.8117921751370953,0.3935240082883596,0.576924010604978,0.10898222179365913,0.7009529502826104,0.05952859284065684,0.7407506276778464,0.12272946498063331,0.6094193157286204,0.06890796688601643,0.5178574564057299,0.030332341197538103,0.6786449192035344,0.13306472929603133,0.817385334892847,0.2345317628862416,0.7309805622376541,0.42253957217331534,0.9016866405029631,0.31308365772929836,0.8188298807905631,0.9598579034712929,0.891666726710715,0.5574728541292512,0.5865789574717036,0.08253946662229975,0.8979450813939716,0.6662341928702342,0.8976133425887438,0.5162792164426382,0.7503235586966989,0.3680983904105973,0.6966575091575091,0.40945131429832216,0.1426074930124373,0.8707123619984204,0.5229284573879079,0.7722180088251516,0.3299305554754389,0.6812136608612542,0.289061973526521,0.5828297409197662,0.367311550876561,0.6420587534364335,0.23443877901049315,0.6077645487927006,0.39432634881192347,0.7463952234409112,0.27504448296226286,0.7980179436465887,0.9526065784693243,0.7596674666394245,0.32323854980217426,0.8383738768354153,0.40173156761468326,0.7007911726994899,0.3848387579045207
20,2.5730076869856573,0.8264254637050606,0.7486309395700314,0.27108541852538853,0.5099851959677315,0.290999899608228,0.6667829229839106,0.09893853399657666,0.8974590344283073,0.5712948635091936,0.9379607385621062,0.6779737503396331,0.9311958670735305,0.6575704537131057,0.7802817479592417,0.5390910642332913,0.5880442585055956,0.051686624371261196,0.6045812510663349,0.47779565054682716,0.9536966029662992,0.8052985307647278,0.7322317989786657,0.5027525582632046,0.6729797025386525,0.5902833759463904,0.7778010859679658,0.34538491548309036,0.6239128658687263,0.18019314508366557,0.7918639076539198,0.09765648602638796,0.7678191510740862,0.11398415481749372,0.7235552768055247,0.10774427914667159,0.6320380217490857,0.05065501194288739,0.6844145282333716,0.15770427599239006,0.8604230499849667,0.2850674117829652,0.7215390511924396,0.412854816525348,0.9374710376565231,0.37899333499175136,0.8635412235257431,0.9701992349133058,0.8412988313681463,0.5224108467453992,0.5452816680576423,0.07422430557342935,0.9306639702205163,0.6425029084642679,0.9553599350558782,0.5962951877329722,0.76595606166722,0.387801519964439,0.6961996336996337,0.45609010039012743,0.1774281108205333,0.8379925238169459,0.4819189396128442,0.8232987451737451,0.35695689685447973,0.6999133834227154,0.38900605054424764,0.5384107270783255,0.34156898963899607,0.5985798912257109,0.2691134264246107,0.5851830421720263,0.45462628198597527,0.7030993275292179,0.26222750998314925,0.8322842465391612,0.9591698578478052,0.8151747361935168,0.35990929243853853,0.8974648423124476,0.434431069559789,0.7079537787139946,0.4078505841555426
21,2.5326035251308787,0.8132203648576445,0.7209707375788157,0.17409492348659672,0.49078065575575114,0.23679099565254033,0.7355352377411191,0.08613148324469386,0.9088139961591073,0.5941661503068326,0.9508683974043559,0.7427654374474707,0.9291255264987448,0.6670341753539077,0.9343938134958765,0.747066665954347,0.6199700853484614,0.036341199489863946,0.7291159946594671,0.547996714661479,0.9734350240782528,0.8225403052721734,0.6912554197939659,0.43939664784269833,0.6554691099147458,0.5238005307102975,0.7968500110859175,0.4191707579233295,0.7027355733525484,0.15778543521407584,0.8076026947732649,0.10727845335163962,0.809262970892361,0.11448629549023528,0.6648010271788772,0.038071818076566316,0.5612887151999203,0.03619479046448476,0.7915190189432911,0.24856102642996836,0.8754818011341813,0.33692401486284773,0.7478389504986778,0.45302776704883657,0.9313419738711216,0.362325932340247,0.8458884911845226,0.9664633151109325,0.8792020735502475,0.5326857333889078,0.6507029558855018,0.11802786846482363,0.9182925046302766,0.6853558923319127,0.9424398139818738,0.6531705950674619,0.7875919472070833,0.40176499722182113,0.7021520146520146,0.42630441977314437,0.16119750692968154,0.8426553423884603,0.5029437265866183,0.798771028681743,0.35493420650520674,0.8586498765464876,0.509272948524155,0.6314360092225139,0.36058398438602435,0.5575964329182661,0.23573449565901533,0.573189189941026,0.4081430002938311,0.7188855864465428,0.2777845837940197,0.8219839726156651,0.9588337089371928,0.7714777174514762,0.3343792460979412,0.8708448595966738,0.47816743563246433,0.715617675962,0.4165431675769227
22,2.440988777748602,0.8353560796885734,0.6664110887916398,0.22130955599885124,0.4433989352710566,0.1602970513297903,0.7464072772306939,0.10679216678089662,0.8798816355594924,0.587623938363031,0.9332623034740177,0.5773901164888852,0.929142038830154,0.6530019197336403,0.9149572691188393,0.69201673333917,0.519190913029317,0.025662385447516894,0.6361010804090276,0.45684942551458074,0.922910473984658,0.7332455249739405,0.6441218601149076,0.3851166696248782,0.7310677358676619,0.609152209195934,0.7780752961722012,0.3595340695808068,0.6351915371793678,0.18799821525835586,0.7120825089532637,0.056842645791218574,0.7988118333016256,0.1035967790261878,0.5926933772139833,0.044287654986207715,0.5025827929281066,0.027168095963108062,0.6524359983053925,0.16484165775998808,0.8372362889364313,0.3379155199683994,0.739109692320882,0.44635701607933287,0.9048788173421878,0.32680907614787796,0.8526414481312862,0.9675389070163213,0.8608595447438423,0.5470440113531332,0.5481013891118429,0.07789723342675081,0.8872582528696346,0.6912887339832903,0.9145971816953349,0.5788987398686783,0.7475336507735869,0.37505466862965825,0.6891025641025641,0.3886183069069611,0.12248221288904307,0.8240153877366566,0.49076561680602643,0.8343474214009929,0.38300423374268955,0.8530795345935327,0.5166859581340926,0.5609144585761555,0.3064499239042057,0.5035710182056499,0.18648409352675505,0.6469956603983531,0.4464329149921304,0.7191585493802806,0.2628422993926298,0.8241173626839621,0.9580518134359939,0.724810084470491,0.3083076451157863,0.8503922030772539,0.4500135118153831,0.7027290897663899,0.40286547488679414
23,2.3840843845565725,0.8632928784062285,0.6635835405855672,0.2148883265661065,0.4879637303881307,0.1988362997715324,0.6860779339410379,0.0970395387906755,0.9216590371167198,0.6196809288115456,0.9025642681215629,0.5957486684827972,0.9044244241599626,0.665769839014199,0.8187373583297641,0.5419759662702566,0.5706488570136576,0.035745174087594395,0.6678027614447272,0.5144297627826507,0.9683554962285875,0.8083394785955134,0.7060712424977911,0.45782571663627347,0.6522141469115514,0.510139261014804,0.7592920263133326,0.3489967219527673,0.6474708707988757,0.18272544183299722,0.7159710963393761,0.05950563101912961,0.7707495424717511,0.15974368852754264,0.5951354372966042,0.06636972258829564,0.5297785228370148,0.03136388629027395,0.7068900169460752,0.10288086477045452,0.8217216754461732,0.31412647090625345,0.7395662603614553,0.45894503201189973,0.907197911172598,0.3253234450898456,0.8438317725239254,0.9653947519714915,0.8673454482572052,0.5571582644210649,0.5559789320656774,0.09097971716455608,0.9027658131995305,0.6825397583128989,0.8682011048129283,0.4500874153062158,0.7474814528733918,0.37246517677739394,0.7156593406593407,0.41126335108463463,0.1301981226876367,0.8762676901938009,0.5245895979315105,0.7854826685741865,0.35752516143824065,0.7528407582435087,0.39150185868667575,0.5848933014053135,0.3431301834448815,0.5896994237856517,0.23530852233095648,0.5631893290308223,0.36251802534271504,0.6748584771941515,0.25084840200794534,0.8133757291177507,0.9541740049969083,0.7538781384935233,0.32055349440504183,0.8040566244484966,0.34532083172050965,0.6918004992338036,0.3832425640902747
24,2.350944891875686,0.8473398977177314,0.6743072660507555,0.19419123042267694,0.5387562475385246,0.26533673011221093,0.7903856513598695,0.13479048243338446,0.8174019534147615,0.43635752191638427,0.9126835397121252,0.6542815522494906,0.9155808891413441,0.6524630140038961,0.8191673451145121,0.5346686364993942,0.6259052660538273,0.048853498259368175,0.6840975477497755,0.5142657973051926,0.9569033532751506,0.8033677130372712,0.6702569267647043,0.40168828386348665,0.7080335343140045,0.574836158611002,0.7988420542767042,0.35001651678436085,0.7584370716170851,0.24550685226343244,0.7431361162990121,0.06306815332267718,0.7655315098298237,0.12379229057555921,0.6163361755345893,0.04872601102970958,0.539823890775265,0.03504325404020531,0.8180990134963385,0.30600043629444545,0.8506055860950689,0.3645250182620628,0.7567447169395821,0.4506415958030958,0.9103664968665905,0.3272803156634831,0.8631582394507877,0.9693051683302145,0.8867913683296248,0.5664816022942027,0.5832808765027497,0.09215265732166204,0.8833335044741716,0.6306912661097931,0.8932460893707769,0.5377337788112914,0.7696745270499085,0.382446871689628,0.6845238095238095,0.45678530954458385,0.1587491935672454,0.7788030270443477,0.37174856819176366,0.7905545452978489,0.34313873639278697,0.7390086550204428,0.3618503036953453,0.5837326636835137,0.3385145661533817,0.5351409895226017,0.19888115928910366,0.6079598308668076,0.4122628122229812,0.7248253066449233,0.27160165891332483,0.8318326862608731,0.9589241875263614,0.7206975434400185,0.2838490862717931,0.8109971923469745,0.39606524188094944,0.6891216136066305,0.3723259558277306
25,2.288185643363605,0.8761163269979391,0.681872636859544,0.19603952420331217,0.5724738515831195,0.27416867983528614,0.7082798407886204,0.11359605929406541,0.8446581241176435,0.491555311314,0.8539189762931423,0.46922813281797265,0.8942276314173646,0.6095224982873194,0.816303424934566,0.5385442477933129,0.5922267758266847,0.04137426607632662,0.6423589587465632,0.4642321085703921,0.9543341959808433,0.6236798210777575,0.683289057546439,0.4306374672535051,0.5731230890738496,0.4084553747219148,0.7236682984982423,0.35817991997734344,0.6578007796359779,0.21223389023613493,0.8071558015027386,0.12648308856905938,0.7426112202271699,0.17814623516834174,0.5457352369262863,0.028041513992119904,0.57366310509369,0.03494957717132214,0.7275078678206137,0.24847535018695635,0.8269721738012106,0.3043105646700621,0.752326294856213,0.4688109616525001,0.9342904457546892,0.45527057391596,0.8444841958139332,0.9654693407474965,0.8566573893153472,0.48601407450604933,0.5992761086213263,0.10878289645852021,0.9323352827497248,0.720441707521626,0.8656806828231943,0.4620381415437633,0.7484159795040272,0.3636548639837933,0.7005494505494505,0.48657460059572166,0.16696201040951805,0.8050236536818851,0.4160689231366698,0.7632544255033095,0.32718352011304536,0.7431743814049806,0.35674030999647255,0.5492838438799601,0.307609201322562,0.5558058702368692,0.2522768563040697,0.5050450650940247,0.297202726966328,0.6504858681770225,0.2536229100221501,0.8183966276698798,0.9561238866865195,0.7707337267409303,0.3361222100238374,0.7954021063600164,0.36381036512400416,0.6766527426676908,0.36670208364592516
26,2.232014293698316,0.8829097015495,0.7305637094695672,0.27803000026918473,0.4826338512696181,0.20652487238698614,0.7919020460623877,0.13037017841478302,0.8701266772953294,0.565869277884489,0.9100385023854832,0.5896042144177271,0.9305693158317297,0.697763913522436,0.8936824095109517,0.6539958349103936,0.6265579493601238,0.07542943958043781,0.6474091013243356,0.4823705685177426,0.9605386279705536,0.7958219293535195,0.6297093431828027,0.389053872134575,0.735081252369945,0.63523807799783,0.7761575680143965,0.3727851477060398,0.7222725966860448,0.25135041682145326,0.7741462661827718,0.09889699560539782,0.7591465456952151,0.131464218020637,0.6273318151947241,0.06264579899902195,0.5266693242027984,0.03163717368676543,0.7705102357320099,0.172973787691372,0.8756005026129967,0.41376917215788156,0.7512751461236263,0.45719110583825057,0.9192001169446772,0.29936931366975594,0.8277151440160675,0.961651478861513,0.8974412720080542,0.6203960821541923,0.536291516371298,0.08952544989786733,0.9171803947901306,0.7047316254749997,0.8835906948657978,0.4726763863432364,0.7693830342767941,0.3941161604562403,0.7220695970695971,0.4068028602661692,0.13080070886119438,0.8253241116046278,0.45029559632549576,0.8222268425951463,0.3819519425558281,0.8290467530398768,0.44130300488681123,0.5679853593359545,0.3153698259218292,0.5067329625247892,0.19093326161223712,0.6402798486703015,0.4652867524330907,0.6993573388744224,0.277378315801753,0.8032464979942999,0.9530842374453895,0.7653364512124482,0.33194451667060726,0.8251987892771636,0.3774289957855788,0.6992307104904727,0.3923433780272559
27,2.1829270785587016,0.8724524845431646,0.7239298942747899,0.21627759503639113,0.4888341419352402,0.2104994929131178,0.7909271032634234,0.12488218579703483,0.886366192928272,0.5705724980070807,0.9052776407171332,0.5410660671879943,0.908856823164428,0.5885635403007788,0.8552415741646613,0.6425251768192848,0.5978942741586109,0.047541305330102035,0.6552689015951951,0.4476972076304411,0.9445839954208224,0.7843470979652738,0.6783307934927771,0.4564164074641427,0.6727605244223711,0.5263988743818229,0.7528922494004758,0.3531980300164177,0.6966001757227973,0.24398478653075614,0.8147102140091801,0.11347104891176922,0.7557740332957307,0.1698478516897617,0.667267627754811,0.06192949418062403,0.5125141478207017,0.02900299021376121,0.7456091508805907,0.26292330877580894,0.902362385360962,0.41819289686959554,0.7298479675493761,0.4707457865183774,0.8758648682350285,0.2444562384904639,0.841944778709689,0.9649491613367635,0.8585181543725933,0.5533720402728374,0.6209283042456665,0.12403212105759252,0.90059715316995,0.7016332677228171,0.8448295848691042,0.483729876605865,0.7640197279605326,0.3834169017787658,0.7168040293040293,0.40391691989850675,0.13054112846332083,0.853758162109353,0.4866207345670259,0.7916156749862108,0.2736076858481697,0.7666745207879786,0.42688074876295606,0.5760033625665956,0.31472728569451264,0.5356633699602522,0.23253576395970363,0.5936858796038723,0.389830607858406,0.6830082035005889,0.2603903140947214,0.8110069958144607,0.955405080348838,0.7194983865938329,0.30540451898292614,0.7840040274728228,0.3618258470174467,0.6835305002994977,0.37616088323618424
28,2.1606153953021723,0.8830623616517823,0.6269335238459637,0.195890511111366,0.5561464432470831,0.2691130786086703,0.762965202154243,0.13266159319712262,0.7384778526091929,0.37552475528299273,0.823942229123875,0.5598473290004822,0.8678486315802862,0.6175554461559214,0.7044494397831296,0.4040784215821635,0.5499941498831558,0.037579237253656875,0.6629485222246853,0.49277334180126564,0.887376652824526,0.6687055108256718,0.5968592115837241,0.3524604192374874,0.6862608045385984,0.542936088023416,0.7137741977430698,0.2804877976018006,0.6263493120090862,0.2022513199164061,0.6455008866006615,0.04744023015653383,0.700368568144244,0.12304407777327384,0.5265235899706938,0.04536760802642463,0.4915516451809616,0.029940085880357917,0.6982800490225747,0.14172124435479697,0.823085960378385,0.364702874542556,0.747896273658411,0.455466272048612,0.9039023124377572,0.3795011500618925,0.8554700185185579,0.9681515190174771,0.8361575324385242,0.48102752620041456,0.4572319438779336,0.06624692686215364,0.8783437405299522,0.6983970856381875,0.8171897306303307,0.3899318399531329,0.7105862379459114,0.34528901074497176,0.7106227106227107,0.47261826679102614,0.16339566562419794,0.7174924049607863,0.35321620022118716,0.7652565671538886,0.34450782740698704,0.6332551239844952,0.268615874262152,0.5712221364876826,0.3267133141981886,0.48017614115123713,0.19686305290681125,0.6001870757761211,0.39238183122098685,0.6358855659889354,0.20397164760904413,0.8265126905014231,0.9587482708062807,0.7038783256946365,0.3073845953512193,0.766128498711953,0.3568032100864763,0.6520557088365622,0.3520546808812301
29,2.1700864582059585,0.8616136172811236,0.6772459964448271,0.21548667635886773,0.5512939857082574,0.23823530680784855,0.7671762304261202,0.11806187979749297,0.83760922118455,0.5293002132092264,0.8796141506414181,0.5688222889757337,0.9077310491030256,0.6077063231850998,0.9072300993435691,0.6946105556930625,0.675620349552387,0.05644418252482576,0.7127467699017072,0.5328344332585304,0.9392255620653152,0.6246856051899249,0.7450260246703404,0.5233158383816501,0.6462700525735076,0.5154097936522186,0.6570905516086589,0.2622473538360085,0.7476424081255721,0.29599730371204214,0.8090925671315132,0.13092020013028238,0.7595186642050797,0.16397962863309784,0.6169120341333909,0.052219027331197196,0.4984096307211177,0.030987008005752333,0.8430475700538643,0.2699133065047248,0.8732224757687355,0.4576562232539002,0.7229467466165047,0.4753797660950981,0.889316665627533,0.2992848648314344,0.8466378709166138,0.9663710532949377,0.8270394070180794,0.5029105766040844,0.6027452164652694,0.1232793229757466,0.8793675600340668,0.6786955854737453,0.8714007470963678,0.45863035820012504,0.7663399854495331,0.3849401731820984,0.7252747252747253,0.4380828594638505,0.14164933627638196,0.7822720595726229,0.4576046651627993,0.796119820394374,0.31099368807704036,0.8186535934264322,0.46405112679205296,0.6210608345362587,0.3484605286864925,0.6148662450740907,0.2714241561495016,0.5445750806720819,0.3745028225855436,0.5789228192921083,0.1718273320240662,0.8156588499439147,0.9562852082011926,0.6972032688523556,0.3059429995197054,0.8106198752062324,0.35623244701268547,0.6834577551303928,0.3780885736806784
