epoch,train_loss,train_accuracy,train_1st degree av block_rocauc,train_1st degree av block_prauc,train_abnormal QRS_rocauc,train_abnormal QRS_prauc,train_anterior myocardial infarction_rocauc,train_anterior myocardial infarction_prauc,train_atrial fibrillation_rocauc,train_atrial fibrillation_prauc,train_atrial flutter_rocauc,train_atrial flutter_prauc,train_bundle branch block_rocauc,train_bundle branch block_prauc,train_complete right bundle branch block_rocauc,train_complete right bundle branch block_prauc,train_early repolarization_rocauc,train_early repolarization_prauc,train_inferior ischaemia_rocauc,train_inferior ischaemia_prauc,train_left bundle branch block_rocauc,train_left bundle branch block_prauc,train_low qrs voltages_rocauc,train_low qrs voltages_prauc,train_nonspecific intraventricular conduction disorder_rocauc,train_nonspecific intraventricular conduction disorder_prauc,train_nonspecific st t abnormality_rocauc,train_nonspecific st t abnormality_prauc,train_normal ecg_rocauc,train_normal ecg_prauc,train_pacing rhythm_rocauc,train_pacing rhythm_prauc,train_premature atrial contraction_rocauc,train_premature atrial contraction_prauc,train_premature ventricular contractions_rocauc,train_premature ventricular contractions_prauc,train_prolonged pr interval_rocauc,train_prolonged pr interval_prauc,train_prolonged qt interval_rocauc,train_prolonged qt interval_prauc,train_right axis deviation_rocauc,train_right axis deviation_prauc,train_right bundle branch block_rocauc,train_right bundle branch block_prauc,train_s t changes_rocauc,train_s t changes_prauc,train_sinus arrhythmia_rocauc,train_sinus arrhythmia_prauc,train_st depression_rocauc,train_st depression_prauc,train_t wave abnormal_rocauc,train_t wave abnormal_prauc,train_t wave inversion_rocauc,train_t wave inversion_prauc,train_ventricular premature beats_rocauc,train_ventricular premature beats_prauc,train_mean_rocaucs,train_mean_praucs,valid_accuracy,valid_1st degree av block_rocauc,valid_1st degree av block_prauc,valid_abnormal QRS_rocauc,valid_abnormal QRS_prauc,valid_atrial fibrillation_rocauc,valid_atrial fibrillation_prauc,valid_atrial flutter_rocauc,valid_atrial flutter_prauc,valid_complete right bundle branch block_rocauc,valid_complete right bundle branch block_prauc,valid_low qrs voltages_rocauc,valid_low qrs voltages_prauc,valid_nonspecific intraventricular conduction disorder_rocauc,valid_nonspecific intraventricular conduction disorder_prauc,valid_nonspecific st t abnormality_rocauc,valid_nonspecific st t abnormality_prauc,valid_normal ecg_rocauc,valid_normal ecg_prauc,valid_pacing rhythm_rocauc,valid_pacing rhythm_prauc,valid_premature atrial contraction_rocauc,valid_premature atrial contraction_prauc,valid_prolonged qt interval_rocauc,valid_prolonged qt interval_prauc,valid_right axis deviation_rocauc,valid_right axis deviation_prauc,valid_s t changes_rocauc,valid_s t changes_prauc,valid_sinus arrhythmia_rocauc,valid_sinus arrhythmia_prauc,valid_st depression_rocauc,valid_st depression_prauc,valid_t wave abnormal_rocauc,valid_t wave abnormal_prauc,valid_t wave inversion_rocauc,valid_t wave inversion_prauc,valid_mean_rocaucs,valid_mean_praucs
0,4.900522146452193,0.32871233012844403,0.8532747847014941,0.2572672295628135,0.8028643250533404,0.27615624144032896,0.7098707786174966,0.013807608061669828,0.882089929337936,0.12329129125519431,0.9617417941600709,0.7475298508303215,0.9435210038341324,0.6399134326844153,0.9790051375938135,0.5105511543503235,0.7988574914450655,0.03135912756717167,0.5478167079318581,0.011109313055507197,0.9429502927447687,0.14719558941701782,0.5452424952979158,0.028817517946690956,0.5324390604594584,0.03394387006945673,0.6627700993946586,0.06426090369621794,0.8988725475522826,0.645762363530865,0.9349917513515217,0.5391439165450452,0.6568977292970006,0.10811351036291833,0.5178281483268948,0.023009001008113854,0.7606293617656006,0.03317024537883554,0.6705723400063333,0.06694942648631491,0.5486091453052349,0.0450053054219209,0.9732218048033343,0.6812686195237285,0.6065219826053507,0.1388511759160312,0.7667778818414891,0.32943912965030664,0.6138614977900692,0.06556597779691627,0.5944193370877117,0.2508020789877153,0.5525470678348726,0.08780185250177429,0.6384233138999458,0.01312224121713507,0.7369117707422093,0.21900770275054632,0.3186256242080942,0.8562184785125383,0.28748547060344565,0.7957383468612598,0.251087570068584,0.8877879399213592,0.1418167183421587,0.9580489397512078,0.7094874254689825,0.9741013065446512,0.5098083705348969,0.5454510479369759,0.03678889672790167,0.5109083181678421,0.031851680875677885,0.6509211226855907,0.06006081854778894,0.8872731992027674,0.6019475782592274,0.9417419085438887,0.5381830097880486,0.6428209779517362,0.11812045339498298,0.6786264002562554,0.07131682616894423,0.5493288829450482,0.030744830769246636,0.6080011303003712,0.1446799692933594,0.7825583986676692,0.3469819975168668,0.6004881964226723,0.06590268126747201,0.5987328646287317,0.2553577577979177,0.5145677429170696,0.07397426437609793,0.7212952890120907,0.23753312887786665
1,4.425590539362998,0.44095798862140073,0.9335261017231077,0.5378246893623017,0.8283467091209049,0.3873705818378767,0.744723812857893,0.01946392259758033,0.9241926437240064,0.30601988247345346,0.958099896558895,0.7570551137327192,0.8764013106506267,0.4469680331220607,0.9778879444196172,0.5202200602869426,0.8141833012850502,0.03906487356063632,0.6829355085846394,0.025210736424223303,0.9720177504551339,0.6718591124522383,0.5402573820967367,0.029388331919851757,0.5518653610548985,0.04352615790191259,0.740884761158377,0.11546524975802426,0.9445415753576835,0.7583261333207764,0.9582548130095081,0.7153273582054038,0.841625486958108,0.29979880056608954,0.5913782455093548,0.08790429334499796,0.8589932233244997,0.05425082744488103,0.7722810379271023,0.12417578453731742,0.6705572316824079,0.1262165186108217,0.9504010768738255,0.44442142121017636,0.576939261856786,0.1593698641031105,0.8680534556151938,0.5268209378407677,0.5971317578460437,0.07637753027882471,0.7048469580863712,0.3847301206867806,0.673367087728013,0.2191546929084589,0.7730272157337228,0.03801471290663633,0.7898785522666114,0.2931231756072172,0.41991503316687784,0.9359157883433832,0.5135417060946286,0.8124822735467871,0.36453527320458307,0.9282730545744972,0.3221173327697113,0.9529668513803229,0.724246251943461,0.9710910441569468,0.499147065911072,0.5649189033291524,0.036775738000246624,0.5074306232953163,0.03366467554580593,0.7329013919732112,0.11325413992716461,0.9407768956222451,0.739330162250484,0.9521168724174832,0.7124426099342428,0.811143558170343,0.2600621983329232,0.7807797685939346,0.11085057018047272,0.6554749515814238,0.10062676720887086,0.565416055182361,0.14296207961843987,0.8743191215197315,0.5148115446490962,0.5839862144714978,0.06605674329999409,0.703016345928379,0.37660064936397925,0.6354729560842017,0.198606404906553,0.7726934816761788,0.3238684396189849
2,4.2429972042051425,0.324439144369084,0.9496952822536144,0.599254878545467,0.8584561715559298,0.41787646506375653,0.8013562666984686,0.02337276730150599,0.9256342258415309,0.31569454129118324,0.9654024528609259,0.8014626887908999,0.94258609880746,0.6827546114266836,0.984618902403727,0.6190484367512881,0.9001210230745958,0.14147181495385444,0.7229766708542955,0.032487549806424855,0.9700849825241205,0.604033274408108,0.5515381803292979,0.03371958835015591,0.5665512114560346,0.03880637055905602,0.659413629443666,0.08963949261379889,0.9305191749300394,0.7519643140328182,0.9555757714659119,0.7906785010608549,0.842721907775313,0.303884209416918,0.7674805014179533,0.16363855140419634,0.7852436846384383,0.025103834368677524,0.758486472952488,0.14193204141541413,0.7032560295038086,0.21860693842867976,0.9757978289821668,0.7263297437632096,0.5106865809830727,0.1453499457905546,0.8894548519822038,0.5787507645280423,0.5976791601791602,0.07227557431628473,0.6232296220490556,0.3188107530747452,0.5724713986497134,0.13511558679931274,0.7728545886813682,0.039142883053075596,0.7956997286034948,0.32634096745610985,0.3011850637251248,0.9513946632842413,0.5842912100230232,0.8527043975856392,0.3968160965585739,0.9266980725580657,0.3213745837701432,0.9589789203326844,0.7657949432985355,0.984182802234378,0.6073427772321391,0.5726006625912516,0.037624977900239276,0.5236544695154504,0.031374644263065354,0.6438008329421985,0.06846948240028591,0.9174375040242095,0.7003415413544062,0.9435211186746897,0.7553922523655536,0.7919802097683821,0.2549969814402884,0.7684721980228454,0.14277875063979753,0.6929254559962239,0.17964955272585867,0.5015341085315299,0.13809889630329147,0.8912158677062736,0.5627755375757645,0.5781280508978148,0.06337298598666741,0.6234772328541726,0.31361620219571495,0.5386539443798428,0.12680964916490134,0.7589644728833274,0.3361622813999027
3,4.124706849806419,0.39569203249608703,0.925043371494258,0.5362926653872165,0.8613517272734027,0.45502210779972646,0.728477224683246,0.021802916502951672,0.9430456551065204,0.5325677671456229,0.9709345150560269,0.8200904083751949,0.8176037855710943,0.531242708596541,0.9743090465028265,0.5548491952549306,0.9168896775859285,0.19464853426061476,0.6561086313400606,0.029808398758753414,0.9637489454210659,0.6874317212238262,0.566180906323762,0.03846555331813496,0.5352732115015124,0.05180241634894834,0.6854803933723119,0.11875915004105678,0.9529005495248783,0.8193225449646464,0.9435069752990736,0.7782979596068847,0.8532353765013897,0.38528219271839675,0.728024982285166,0.16204694924209756,0.7334267204704806,0.014017510805826581,0.749229888320352,0.18518199316715578,0.7518073854412647,0.2734228578119772,0.949329957368931,0.6602879559477364,0.5835612603405129,0.17132541245371224,0.880225981582123,0.6282280060623184,0.584320825392254,0.08361132018458034,0.6409238488166505,0.33654427683670446,0.5774398557987888,0.1570422909218704,0.7571898011320943,0.04102214633202413,0.7862803888705917,0.34327470222479445,0.3673697547887009,0.920543536983534,0.5134124331979043,0.8476184198336741,0.4156355017606072,0.9458306966446899,0.5060237098130153,0.9661399911209343,0.7849622610024397,0.9598531551514098,0.5293916489450231,0.5744624180975549,0.04282996617788225,0.4831136567946925,0.03871779490729202,0.6744502511436318,0.10454951757625032,0.941861639623978,0.758209019353231,0.9267768671279397,0.7789114982928862,0.8208243192410172,0.31321329590237873,0.7566792499199201,0.17264047549919842,0.7300101519800106,0.2401426470384954,0.5687745302917978,0.15666011454589052,0.8764253171304587,0.5716698256570896,0.5582883097775437,0.07254978309048671,0.6418574700185231,0.3366251911987556,0.549147657498071,0.14901288518061429,0.7634809799099657,0.36028653161885776
4,4.040878730863818,0.4330575637872351,0.9098806187311821,0.5743472618305989,0.8907291200004378,0.4898714363734162,0.7639542454744626,0.023968578376679723,0.9584803569596884,0.6254978864842268,0.9668371615715565,0.785252745194956,0.8082416476957983,0.4236723429309435,0.9653880183871778,0.4920051407188415,0.9133570451992501,0.23465556323230766,0.6656609924616246,0.029784586604376113,0.9615754027336136,0.6670001758903842,0.5720209065665073,0.040216571718581326,0.554442119784889,0.05381842707406515,0.7311585171016521,0.15660006548404037,0.9622468376850715,0.8273688478400275,0.9607946339192224,0.7001748241009126,0.8565806413507938,0.41259575040352786,0.7564002407255064,0.21652639895375272,0.8425720227481169,0.044499308767747554,0.7999122865166995,0.2499477234317466,0.7312008430937592,0.21088969589971787,0.9330730538086023,0.5985176948120112,0.5635353584599316,0.19521963948900783,0.8943022259834488,0.6276597794094028,0.6065393118964547,0.10118764711464885,0.6552555715480961,0.3531458221591163,0.6016307732305937,0.15236478495657807,0.8141537999144571,0.05235970347156409,0.8014786575388368,0.34589438528604366,0.3956175001863308,0.9092077138092218,0.522506904519275,0.8770746185694842,0.44275307403885916,0.9550820032703955,0.5688670497604185,0.9632061487584193,0.7546556130692574,0.9532743866554755,0.4739584200967535,0.5740042432959314,0.04518260252119529,0.5000017846753497,0.03137504567758099,0.7036629491337821,0.11571346042877723,0.9522366923045404,0.7791896167892591,0.9469232569653426,0.7116030253920682,0.8012087728156434,0.3191339031342344,0.7922075068876286,0.20229572021962225,0.7110559183046569,0.18256752032632584,0.5427885748885459,0.18069560560930376,0.8781791004207007,0.5407836914119812,0.578851119177062,0.08108662860784663,0.6544412808886078,0.344735570766786,0.5655171327037396,0.13683000623871538,0.7699401779735848,0.35744074770045886
5,3.9566398545711317,0.46756602320439244,0.9545947992581421,0.6235399292534636,0.9043550939546378,0.5461875797659763,0.7987570761113559,0.02685781445304076,0.9389707556071745,0.6340085322610981,0.9623884483273485,0.7749875136872083,0.9196554871367776,0.6503326165166549,0.9878681622778818,0.6341942250258361,0.9424032130370636,0.29289535153532964,0.7108485641450192,0.03733462319780351,0.9748330117868169,0.7502982230664053,0.5710445204386181,0.046498283204568266,0.6554124301987752,0.10366706473111231,0.7691058447217667,0.18079295149482028,0.9643776911664383,0.8558485667547828,0.970337066555165,0.8327394608511909,0.8720525840155494,0.4109940056438096,0.7706855180810888,0.2393414388029087,0.8827868684084045,0.049923061159020225,0.77531800324153,0.24091929254119523,0.754819122074468,0.27731340595364196,0.9748431135365738,0.741813441143171,0.5868158578013145,0.22030694371281256,0.922563876685902,0.6711630046098856,0.6413485252770967,0.106692835026482,0.7031534052941611,0.3885168597136365,0.6380987683489455,0.18479502714259233,0.8397643717801008,0.06804196364991823,0.8291556362691894,0.3922223709221616,0.42893344264738764,0.9513031398169866,0.5834093133954359,0.8862082849344745,0.4855490099884232,0.9286868118693358,0.5729038966061237,0.9541959711480873,0.7325670425673307,0.9827709674675031,0.6275071739135692,0.5600252036496864,0.04293635863694292,0.5895214826470917,0.06768070720794583,0.743846017779708,0.14279516597168398,0.9551158130952172,0.8154311835393848,0.963214609739139,0.8098548249822121,0.8261645708503308,0.3081674171997695,0.7660011351938236,0.21693468575207026,0.7386487002843304,0.22425119981106845,0.5672082715545066,0.19578586651540414,0.9084235838651937,0.5738384384541589,0.6191445190175489,0.08866034270387335,0.6982831814070126,0.3650290016993619,0.6098041122835997,0.1658714022568035,0.7915870209224208,0.3899540572889757
6,3.892928975990392,0.4605848301905543,0.9508510024788394,0.6370623840701438,0.8668371731452262,0.4950992296233395,0.7502649634629329,0.03040651060917209,0.9551122619992897,0.6461267151324567,0.9583842052675654,0.7688767391751324,0.8380235389408969,0.556890102979092,0.9825400794836113,0.5807877579602282,0.9338149338896022,0.2841444458069575,0.6875811714940187,0.04736160020907084,0.9660400209873669,0.7271315289974637,0.6231545429816925,0.06896246676441405,0.5424932130365223,0.06151144181710642,0.7386672083229098,0.19680100905875098,0.9593452894547784,0.8418750917483637,0.9657944409401259,0.821267508673962,0.8657956478584065,0.38519925956975765,0.7698819307467274,0.2674425755198897,0.8968389986925646,0.05137338444751976,0.8067699795608528,0.3166379771770994,0.8287682661528272,0.3165407726066331,0.9638884518798003,0.6774735606122512,0.5413071392309946,0.18981899409942543,0.928283081760478,0.7287769213304718,0.5584386030814602,0.08964919183423953,0.6409100121258483,0.3092478222971464,0.5899972814940116,0.12589449363620292,0.8191433382526905,0.06534751628407591,0.8121824732119274,0.3810261852607543,0.41335618990832523,0.9403443161494038,0.5674547285930537,0.8534773540848637,0.4301004524422256,0.9439000996983807,0.5803830464091878,0.9517659421519515,0.7348456678578186,0.9744016969205822,0.5527345269170479,0.6276397513856895,0.07033809118539253,0.4823694471738646,0.033193347863623046,0.7193272012721809,0.13699029395496234,0.9411744143677454,0.7647268487465653,0.9397512148040489,0.7657984951442941,0.8200084837151296,0.2924834603351599,0.8056028130285557,0.24771673803929778,0.7923283247734535,0.2865424118382031,0.5204307465656015,0.1694280941937318,0.9003247536160989,0.6132462813722066,0.5375940973845703,0.06906660812469421,0.6366682595681991,0.2929879993647385,0.557651194887901,0.11926961144154652,0.7747088950860123,0.3737392613235416
7,3.8195811017712096,0.47983901021092645,0.9297939507351443,0.5280626262928975,0.8804948339710899,0.525216150474299,0.7573224167745435,0.028681625731085337,0.9603640622656567,0.6810971646288444,0.9750641011111236,0.8433481341071439,0.7560291224463773,0.3540009677079474,0.9791055147897817,0.5715997278394547,0.9344956834347472,0.3245916370351492,0.6297225486771658,0.037814396083776104,0.9604934115435955,0.7029546352331846,0.609660384767757,0.0809229341080283,0.5727576176754927,0.052042629854730904,0.7342535309124104,0.22832691907450633,0.9707984696933196,0.8759910087967921,0.9503039889717135,0.7123635340187625,0.8804590127569649,0.42426441265256154,0.7566039114905265,0.2456784892321085,0.9022028455454406,0.08782758783217151,0.7789796687190506,0.33200826525414406,0.7502097909806094,0.2884863661606867,0.9562128324672492,0.6846663967271396,0.6097359672055623,0.23331156951644655,0.9246030237741248,0.7369715118875555,0.6076513933656791,0.09597013811552033,0.6602326551337905,0.384013141545702,0.5850002723827262,0.17183722299787307,0.8170533564016507,0.06525201537628025,0.808503865481233,0.38138152623277005,0.42379071327420437,0.9108598340329719,0.4599727322330492,0.8580564799836571,0.4541872030261776,0.9491240785111228,0.6149360290709329,0.9687386385410992,0.798640822267063,0.9618705944572056,0.5567371951297094,0.5885746324512594,0.07590219425945438,0.49892014393661654,0.031579999487610984,0.6977931234982171,0.1542790066222251,0.9524608224899174,0.7917781290095263,0.9231733041934107,0.6900575220127656,0.8264151153496435,0.3165594960667215,0.7511171235466743,0.23821471957575088,0.7113499885743398,0.24127018279158574,0.5793025406857703,0.20147658169011945,0.8971935201232055,0.5935445043865759,0.5820906339394055,0.07408776062379065,0.6562590574027429,0.374036695597511,0.5531187171935621,0.15472196009537661,0.7703565749394902,0.3789990407747748
8,3.760234924876845,0.46212516459218406,0.9433914382033775,0.5824749066303588,0.8622842154670776,0.5371818194163974,0.7486626317844592,0.03040086512817845,0.9725533193924477,0.7674623906687011,0.9723198234644725,0.8315692200478155,0.7910555477239348,0.5190042030084637,0.9584926980510383,0.5390818127008861,0.937169714683209,0.3804818768566711,0.6631270588371514,0.048624737695067685,0.9525099658275648,0.6548297179130419,0.6173181775971488,0.10326826496977157,0.5770397658834499,0.10153947462593316,0.7555305205582159,0.2246556016311756,0.9747346941640758,0.8907177037950005,0.9351032188060658,0.7480785520891826,0.9167574795092018,0.5510280855054366,0.6856000629792625,0.25727315354003494,0.8974146928110189,0.06938371858400402,0.8177125801807488,0.35991927716080113,0.7737968988475993,0.31287859498836434,0.9178214055242345,0.6148063094483981,0.5211925868111077,0.17498040231093842,0.9443783663210632,0.7902158047557787,0.5498147105289962,0.09066247462653783,0.6390028654999753,0.38590772878624335,0.5694974881257429,0.16753635263617203,0.8360050323868388,0.10991512123973843,0.8048254429618326,0.4016251174355221,0.398077066408288,0.9291323139078758,0.5019357194877502,0.8418268876742656,0.452746037649124,0.9588000497590472,0.6710885713521123,0.9651304299511887,0.7925037641987257,0.9493370801002998,0.504232053675295,0.6004812584175832,0.08314142145985823,0.49471583124313856,0.05696513755964392,0.7046762804121979,0.1389285624376033,0.9536870357525418,0.7953091883746705,0.9011557014950564,0.7024490894931124,0.8665984512870156,0.37411667102390445,0.8020792992232444,0.2839580020776449,0.7415451987877562,0.22399220952452953,0.4921384078965949,0.145972793809713,0.9090450159380363,0.61508340866277,0.5173903154410655,0.052118352425723366,0.63126138223808,0.35190110257975676,0.5414358216416532,0.16723888678771562,0.7666909311759245,0.3840933873655363
9,3.6958963446657287,0.45561600954013565,0.9606308492232655,0.7071147497244747,0.9095749358018246,0.6015795793303832,0.8277307586514658,0.04465108891561812,0.9476788302733266,0.6389724245971465,0.972300870925001,0.8549199409646772,0.8955214298912676,0.6286411107291968,0.9874499689850802,0.6709202200609309,0.9473802859299275,0.45199411928937394,0.7450841031559027,0.06855970287862782,0.9815226443357218,0.7837173544214684,0.6545185807313701,0.09433976941213018,0.6712275012626563,0.1485995600753871,0.7799725924892793,0.2683314538303411,0.9787319006729192,0.9091111589791785,0.9549022630508013,0.8317109457968102,0.9021752794473282,0.5086195954525803,0.7955137470484219,0.3338620670604252,0.9137868149531777,0.07299938314454726,0.8262040191368993,0.40013505664868493,0.883903117063447,0.40424209807758926,0.9780683759863029,0.7907461844146348,0.5866667933954901,0.2290592491926464,0.9506090060375618,0.7943740128888594,0.6135275153132296,0.11012042964987925,0.6814058419007101,0.40652690769045996,0.6170804666908297,0.17443926840433718,0.8646815454745125,0.116176080392855,0.8454759273269525,0.446091241186046,0.38443765372288885,0.9402114351483669,0.6020525804405168,0.8764361099432041,0.4834782961305015,0.9209995799326811,0.5176017555318708,0.9624306544640949,0.8105549110391983,0.9793697590649924,0.6312901600284374,0.6277230192078285,0.06171691797159821,0.5751450303675258,0.07938316234869348,0.7304055426734012,0.16454486284132208,0.9563901522468259,0.8142296991122905,0.9194676795635685,0.7737754803699001,0.8432539675635349,0.3242389859603159,0.8046270180695161,0.2868667715342483,0.8412936469583394,0.28130450595485323,0.5579884120572096,0.1817212024450036,0.9011198778832143,0.5853991005564205,0.5793468268551833,0.08025042540243035,0.6691934400933316,0.36609929703946226,0.5780437310496973,0.14657715651442094,0.7924136601745843,0.39950473729008246
10,3.6345996907511333,0.5090556756353879,0.9552524191070159,0.7195935018901759,0.8917329264657328,0.6106421146950906,0.8266860524387218,0.04843917116124394,0.9665206646999038,0.7724986542615835,0.948531564899315,0.7542687826887249,0.9158272363609223,0.603433668251206,0.9893673239359798,0.6939454539024859,0.9413374473395502,0.433238253408085,0.7245249035269355,0.07481576312039691,0.9798012452866778,0.792713628172444,0.7110591161327081,0.1780915205301038,0.6623616445432424,0.1447720420437472,0.7773019006673295,0.2876398578410351,0.9795201292186152,0.9083769509495536,0.9804624722731102,0.8616485509328676,0.9155009340808398,0.5419123779832767,0.8000941162835121,0.35039565873940276,0.9223922311114555,0.09407693574908581,0.8223619029448863,0.4222339409021728,0.8711109392916901,0.3898097969936907,0.9834905777872247,0.8175344364400728,0.587672212170887,0.24801653413177502,0.9679638814924323,0.8455043759164039,0.6061198114769544,0.13395210155065831,0.6777299155569879,0.42570801270812864,0.6370262932364896,0.22755923093524538,0.895178695972164,0.14039676012345767,0.8495158725296771,0.46374881763044873,0.4272937318327495,0.933734325243028,0.5639358507264123,0.8618712008380426,0.47005020877830495,0.9427329255254898,0.6541363632652273,0.9404620058843424,0.7072911439194115,0.9782269600581661,0.6156307004091781,0.6837208313760686,0.12550034541629013,0.5712995648961497,0.07060642471754339,0.7254471197293113,0.18219176065445702,0.9541036694938568,0.7882161166523313,0.9462429274434576,0.7986985749501371,0.8173668051504991,0.35829978221910797,0.7929058755410622,0.26446371876430763,0.8159069539190015,0.27964167862992356,0.5503088468540708,0.18933714816394287,0.9084658388083617,0.6069640183125764,0.5610569198364341,0.08024571261658031,0.6646961406843515,0.368621961449075,0.586874925285545,0.18733142915753936,0.7908568798092911,0.40617571882235254
11,3.569533842560229,0.5168567240565451,0.9547470643907373,0.6614260382184,0.8868414627994693,0.5960511213801043,0.796247424901372,0.0476259703877102,0.9591924741285142,0.7317141408019016,0.9655745572345134,0.8245783687621353,0.7472245679967717,0.280083992171041,0.9834677484711869,0.615148388584206,0.9431064722525476,0.43221127098268514,0.6981816298817879,0.08041305424126066,0.963108268895653,0.7298804805684357,0.6727939207976408,0.17475923176281966,0.6256648491220872,0.1339285605464789,0.7744939499063909,0.21540127874483223,0.9816125834473637,0.9168300407472735,0.9804620317464541,0.852539155305906,0.9197859160739308,0.5735252932901809,0.8373558820454217,0.40444202215959957,0.9223791590909249,0.1325607569650104,0.8394126880700655,0.32872322248487196,0.778208919387546,0.34071557409207076,0.9444116647516884,0.6069979362650992,0.5854543116500317,0.2576580404983944,0.9498616722618412,0.8249585099769107,0.586729068871926,0.13652512538408973,0.638572415384359,0.3778853135655016,0.5849685941718876,0.2142290578019373,0.868492865647602,0.1224917834931125,0.8291982282733229,0.4301223603400729,0.42304539017664156,0.9265906292049622,0.520398854041478,0.8418238590340182,0.43988068493570337,0.9305991998889436,0.5915640785628457,0.9548415894924821,0.7739279248774864,0.9712714976455533,0.5479492037814506,0.625890454521241,0.08239482505573333,0.5168943742443812,0.06680300618008843,0.7231003103392716,0.1361628749459311,0.9517149169403128,0.7760483684485653,0.9445591548113994,0.7801849110841518,0.7956957498953456,0.3263981780312687,0.8044280548088621,0.24414540272216267,0.7405288769512592,0.23052772170561114,0.5357801846304365,0.17729806769485523,0.8873742229813665,0.5404303437421271,0.5320858140705691,0.07133654916312644,0.6289725206687873,0.3270041379543982,0.5396595737744112,0.17447428099044968,0.7695450546613113,0.37816274521763515
12,3.489669481137297,0.490397754093066,0.9338674610644628,0.5667442247119813,0.8654694238633296,0.5735568686582582,0.8234872076986552,0.05986651304468811,0.9686320366293569,0.744566021152429,0.9517963761778495,0.7849715452220033,0.8178019548711578,0.49833773598153075,0.9732763564428576,0.6281450530427272,0.9491441033818764,0.5830845961982338,0.7182908362971583,0.07568270727844081,0.9654962615120147,0.7057857516288332,0.6675879346476516,0.17149798295264315,0.6502782218882145,0.12907794427186753,0.78306840882206,0.27082483503531357,0.9825794736967456,0.9211429059418308,0.9665602467949697,0.8067932855876354,0.8840163757399633,0.5082015690435493,0.8014949181192933,0.3001011242741122,0.879078908084788,0.09874164524991509,0.8360599888622932,0.36568060125450197,0.8003973009050447,0.40598981185046545,0.9444909671605177,0.6776652976402956,0.6200547423789385,0.26882173579723434,0.9505245359365128,0.8442416560274197,0.5734256180684751,0.12460114611343359,0.6654678704708223,0.4413189083050685,0.5789862458141803,0.1632501896448031,0.8776244899217398,0.1141241405040484,0.8307021579722567,0.4382524369041949,0.3915182231497354,0.9102361993349238,0.3938386198498187,0.8149320278112315,0.38189354078319915,0.9333650637402576,0.5975821970519737,0.9430432433716248,0.7385802220492376,0.9531439251418412,0.53412494026939,0.6220367282391184,0.06762780392431382,0.5406461085663906,0.05580622649058399,0.7103080975432058,0.12622488666933926,0.9505434329288637,0.7653562822444391,0.9219178962729326,0.7407419925961141,0.7738658424680581,0.2770415817880299,0.8044737060350161,0.256025468739197,0.743142918151066,0.2803158821695179,0.5653621957077584,0.17889632372509856,0.8875583773370488,0.567020085403519,0.5266971479393654,0.06214661064781448,0.6378465840048658,0.3545452068695228,0.5458006672680049,0.13750963233014343,0.7658288978811985,0.36195986131118074
13,3.4199564016957287,0.5303470721224317,0.9498024167778576,0.6767853537848363,0.9183981263165659,0.6325697941494094,0.8464316009563689,0.06355266602521414,0.9708149860298267,0.753870982754598,0.9534194145208015,0.7889640023356381,0.8131248468141348,0.3918367306750187,0.9755377184390709,0.5850407685965052,0.9607463265981824,0.5886086797491713,0.7836831708134485,0.10558203823321022,0.9794567570531054,0.7926364734992298,0.7289063647252121,0.25792733852020316,0.7321647463109938,0.1821778003774544,0.8400355544929058,0.39378023396094247,0.9872194725228607,0.939726384301367,0.9624361783454262,0.83673891578611,0.9057956412638278,0.5727604615401041,0.7996317560513291,0.31631135107359476,0.9330134228642243,0.13822263771378349,0.8279047368052704,0.44311344319152807,0.8493855915889991,0.3624149138668776,0.9524933897511866,0.6604732930079745,0.709661057052571,0.3234814052047913,0.9584134460581321,0.8240632660497155,0.6817268156553871,0.1592678901804387,0.7285670392605812,0.5054220761940428,0.6726994008400385,0.24182714797386498,0.8700555257996525,0.17695679241154585,0.8626490927299245,0.47089306819100635,0.40903331594246106,0.9217481905030351,0.49846502517862395,0.8645911573206391,0.40352638959598125,0.9364685138811516,0.5936300827741053,0.9418722104478295,0.7361585103595777,0.9657986919643601,0.5333084156184831,0.6557552189688135,0.08543566375320945,0.5886044144709637,0.05712036720641778,0.7416159358865685,0.18473088816040784,0.9524497559133932,0.777772559703371,0.9085770097199044,0.7611405359486995,0.776960415013044,0.30573760500831115,0.7280943542367762,0.20799241066554264,0.7902975541595021,0.22854448526177115,0.6459694201111514,0.215717654791609,0.8947128705509659,0.5240587733155355,0.6259659527279929,0.08742711345370743,0.686961633765241,0.3925760037167613,0.6106042361737505,0.19548979918906406,0.7909470853230602,0.37715734909450993
14,3.3546157520586375,0.5347196342948002,0.9315069292542921,0.6352705012321327,0.9153483724535637,0.6895944895687046,0.8207187001690766,0.07511126647800306,0.9724706671314537,0.8082819699342189,0.9469269224478225,0.753487571946643,0.752058649809286,0.29158964622785594,0.9792497193735064,0.5755104578816658,0.9568242685155056,0.6350012478331184,0.7087910617601292,0.11229050381578749,0.9694589409716716,0.7759114374668193,0.6787200355723026,0.269496645736338,0.7066036723895746,0.18041271492782063,0.8194481987716062,0.3683241646901949,0.9889933195204306,0.9504317338898409,0.9487427340812282,0.7552982738896808,0.8932994815754481,0.5736024768550376,0.7835868000800885,0.3116985414414549,0.9164583507918728,0.17363672954279555,0.8345656375182269,0.5020253787517897,0.8078188814917787,0.3920278788454436,0.9411726753230325,0.5444489216917651,0.6199157775148776,0.2662644787168282,0.9506437250515419,0.8341007297973086,0.5960035156463728,0.1426480968829768,0.6813000750377769,0.4534454579756414,0.6049516086644446,0.16135647607773837,0.9069177208605149,0.2585441116948471,0.8382406089547194,0.4625856260663872,0.40843705746441084,0.8961008150705847,0.40488184592669324,0.8594025621108792,0.4306652180883816,0.9332183106082323,0.6264928993061337,0.9410001286400594,0.7112573728645769,0.9655252709433485,0.49168736122487344,0.5967787325103944,0.07662578954306237,0.5542814106685853,0.06070346405798385,0.7155737948958647,0.13642227782922142,0.950102471011057,0.7763281501763007,0.9036201479600173,0.6885544411695426,0.7720537445789304,0.294070283111106,0.7555898024291018,0.25797337333063736,0.743661755505857,0.23927417254025737,0.546015769991124,0.14461562377987602,0.8752307008165158,0.5355188417278036,0.5433904294292045,0.07187323722643567,0.6395956610786079,0.31617358214963587,0.5583685623308736,0.12710865085819179,0.7638616705877355,0.3550125880505952
15,3.2672308875991347,0.5859730193038682,0.9477339924924423,0.7448824785112964,0.9290769214125176,0.7298609438548541,0.8044554255476712,0.08425029537658965,0.9698664976977924,0.8013478029573892,0.9542936699849407,0.8038755671465825,0.7056698717667285,0.25958866409696985,0.9668839769282956,0.616073773243982,0.960973187119026,0.5738734884725624,0.7550707619233247,0.15746533708490246,0.9450732473600412,0.6531633156538177,0.7436060315635914,0.2992005603946207,0.7202163391699896,0.17831343252282428,0.8220706101307428,0.37354774609253105,0.9889272983975061,0.9363450416126626,0.9686535442017911,0.8410089914574729,0.9233622281663187,0.5848030696697959,0.909199939535002,0.42026706572111644,0.9231674486147042,0.24071193263215376,0.8594876654862977,0.49737481441188,0.8037627228465054,0.38212338160504794,0.92406637771361,0.6181323739960629,0.6681981352971829,0.3309542408867164,0.9611457251280731,0.8580769014203766,0.6038363895506753,0.18523097661044008,0.7140974090520325,0.4894405923176031,0.6084674687999833,0.20713460229295497,0.9105912091214902,0.23248256369858544,0.851553855370677,0.4851677760645108,0.4274427964522621,0.9129676421340152,0.5012598093637551,0.8724839125756269,0.45231499694463634,0.9275439763608468,0.6089407992009178,0.9444652694944767,0.7542346397390629,0.9514586693539546,0.5058962168252615,0.6269571973799827,0.09004672902041129,0.508261007240173,0.03322235323888775,0.7333931711349451,0.15874159123325807,0.9428807890084931,0.7059951957309376,0.9031493393222612,0.7368724311266494,0.7968056272294546,0.2746192612699998,0.7801145921861841,0.22937065639932455,0.712471576329029,0.19535271289250555,0.5844965719055112,0.16850776555652047,0.8823575150111702,0.5123514823252104,0.5354902422283133,0.06879717815704656,0.6589429630015248,0.32511978430428,0.5619431192062336,0.1697325368967701,0.7686768433945664,0.360632007790302
16,3.2029838318978894,0.5914635661225808,0.9535778488975211,0.7635176393227239,0.9445185035819461,0.7530656386068156,0.8901855802170873,0.1420188959358053,0.9730126575450173,0.808813027815815,0.9397707822444341,0.7982277890085351,0.8011738678180645,0.4222406842981503,0.9799767368805345,0.6435626457625837,0.9708128527529916,0.7206860621916792,0.8344701362877023,0.14694104142741884,0.9716923828363937,0.7836996415023448,0.7248889772071632,0.368611428877737,0.7821817356619034,0.26660159233739555,0.8567343035916827,0.4456357782953594,0.9938139410148498,0.9691969527629254,0.9706333562577721,0.8359872926639303,0.9358913607476012,0.6516319041167616,0.8969378019992081,0.4263061262998428,0.911003816796566,0.2952291161891528,0.8878332910260618,0.5691503449949373,0.8815223908040543,0.5119924080930514,0.9624308831719838,0.7184985518798854,0.6998791633213984,0.3417248510580239,0.9711482427232401,0.8816007705487564,0.6981329302757874,0.22457930940088777,0.7370525695130713,0.5324512783045239,0.6579511012144278,0.22050638925497268,0.9389421198447896,0.29530748027714815,0.8802284938604908,0.5384364681935987,0.4253558917790862,0.9060730979728936,0.5063391311773,0.8760497504637977,0.45270242535617927,0.9275037724929822,0.5969090260012876,0.9315265727698118,0.7514466052048103,0.960287515249745,0.5372378256745429,0.6119063031185481,0.08493168076485247,0.5594544196465221,0.04898111438671672,0.7460615634654318,0.1446016073672555,0.9473190532424887,0.7517473445898818,0.9153111188856825,0.7400420119853016,0.7993622250578603,0.3015864679723186,0.8039118155264385,0.2644881172902174,0.7715830720415968,0.2589009575805978,0.5898495023652465,0.17401420444307464,0.8927497424581529,0.5063295528706429,0.6024461362066789,0.07956407753104629,0.6714396759735721,0.34215384884587324,0.6026016931653934,0.16329965637499544,0.7841909461168245,0.3725153141898275
17,3.1228536754385297,0.6069662865518869,0.959240828175039,0.779718875838898,0.9488811445125989,0.7664161120000679,0.8828340222703954,0.14151724618184214,0.9489709435925392,0.6217968279552868,0.9497069198145535,0.8094324350318575,0.8053852622122062,0.41471968138178184,0.9767335616422497,0.6255058768393816,0.9661002684866127,0.7548776525946873,0.8365364191848725,0.14733553899210503,0.9751638165472156,0.7928820512254124,0.752128067243486,0.3838377917973988,0.8035192639687113,0.3518148454612417,0.892283188067623,0.4956525053491643,0.9968367996664443,0.9833186102661448,0.9846713207881572,0.8875659472725739,0.919171692903335,0.6128559661655832,0.8691557337038092,0.3600605405846157,0.9305024861349046,0.26601525410497473,0.9028135759915203,0.6129987102764587,0.8584461018096101,0.4457818511975491,0.9483030782655479,0.6595089760141648,0.717284560627442,0.40529039460276445,0.9654951099388778,0.8823101857859555,0.685097586883301,0.24944655689160888,0.7821512152944905,0.5812291461571437,0.6941296744428886,0.2906295951377639,0.9122975196421071,0.26606912974606434,0.8838459319189087,0.5403180853649071,0.4236416486546918,0.9232014925623551,0.5403393692701418,0.8844535145291592,0.42633041525756704,0.8886253702632002,0.4062370727980459,0.9343796523881216,0.7558660826911967,0.9599443685794299,0.5010754927840534,0.6216720447725296,0.08658645724342551,0.5838998827723249,0.06546295871290957,0.7831164577889553,0.18192484327300604,0.9496423026381254,0.7445296468957447,0.9332285892473098,0.7704293514520992,0.7630339686144297,0.2794996820349839,0.8152599494945267,0.27873809323036847,0.7525441760975189,0.23492872836780657,0.6078258013596385,0.19971487155958456,0.8805744275115435,0.5462105857322676,0.5843223739366824,0.07741217324109731,0.7120982206222015,0.3678146568580139,0.6284078485497245,0.1972221824326708,0.789235024540432,0.37001792576861015
18,3.0398627750586464,0.6008049489453678,0.9629976895222908,0.7254716638647722,0.9149093052910819,0.7520877654984396,0.8839374436171217,0.1746980075690262,0.96717238135365,0.7805210140362031,0.9455604281531524,0.8002586428798615,0.7995383402745777,0.22886352840780788,0.9882799107449525,0.6933202627304533,0.9794123027443152,0.7973697096948604,0.7814911625591237,0.17177707291136335,0.9711260592231593,0.7326804335284856,0.7847235159332271,0.44486463525621656,0.7834349939795964,0.2851265597822463,0.8454105702666145,0.4968834876552317,0.9971933901880493,0.986515214072942,0.9849947952486102,0.8908632027904676,0.9434182581789055,0.7013505077464802,0.8893476740446025,0.4252478934747494,0.9485210992915666,0.2940301497330751,0.8804049117702833,0.6087671345820376,0.8517043150885604,0.4852138672963194,0.9713923080688572,0.7115577174899189,0.7371652849497594,0.42851008799376067,0.9711696154495879,0.8963421712492968,0.6809492791635648,0.248385179962393,0.7429357510686754,0.5712770976621268,0.6528523005609133,0.2926149275390525,0.9079319818587464,0.2632722427208482,0.880295372910872,0.551402599189942,0.40798986360587314,0.9218208388280968,0.45565348520224824,0.8324824041940135,0.39815711984883767,0.9285921615077712,0.5679986916812138,0.9371814694262772,0.7518859538487356,0.9734097508908658,0.5655052033796034,0.6185830641590004,0.08605129855092644,0.5483305381917976,0.05193587035487468,0.7037875577069921,0.1475690865435088,0.946710958581371,0.7587746390063539,0.9284100995935688,0.7889141686277747,0.7961216755441775,0.3128215837352809,0.7630347565610323,0.2532552286226104,0.7318373210760349,0.23757369990261132,0.5982368054925159,0.20232771407082498,0.8706365930651919,0.5356719701206695,0.5862054650276297,0.0714685208663846,0.6648970554013822,0.3426858421269516,0.5825659389025941,0.16564184896004916,0.7740469141194618,0.37188288474719217
19,2.9787206021585138,0.6371767161064321,0.9221387726345962,0.7314880062094636,0.9295007642779597,0.8027050073355184,0.8835018648426665,0.21057908182388432,0.9533021877001174,0.7712167291926232,0.9240165537576368,0.7540083460209359,0.7548434471477269,0.40440122933884737,0.9723037923618653,0.651080400712136,0.9683021006057958,0.7924605329845603,0.6910508890188277,0.11889322623895017,0.9563927193048433,0.6955829640120387,0.7548040656552741,0.41690526473326883,0.8206340433321079,0.3525340273882732,0.855532946573065,0.5022624783689245,0.9970935790697459,0.9861759816405226,0.9449447406204627,0.7803908656527961,0.8683412685347844,0.5481127728683712,0.8596222823329065,0.32702512287959096,0.9044121337295711,0.269311488178326,0.8141838072710148,0.5250085192579902,0.8508148899917283,0.5087275991988789,0.9346501401902693,0.6932951436002764,0.6275940860876352,0.37538463776523023,0.9619292595423624,0.8706251965520818,0.605930980930981,0.2322166899150469,0.7688505752935334,0.5865603580024649,0.6493079217211288,0.2312658952144903,0.9014926845433282,0.33150149360874814,0.8546478702619235,0.5359155206923792,0.43511962435715884,0.8585790457399224,0.4189125662129868,0.8290232813357371,0.40332965760974165,0.8980054915238347,0.5251851239118737,0.9175610124112401,0.7037139113915667,0.9425868479007317,0.5310602919334004,0.5911840495980276,0.05826733003769462,0.5762765145392401,0.06949720381741806,0.6944441039041102,0.12017836233832382,0.9469931288449494,0.7561341877876785,0.880243603602189,0.675158140753194,0.7323227806542065,0.24644696445056236,0.6762622373818109,0.22782630959038153,0.7317131372615128,0.2360363305754345,0.5116027571007827,0.1470227303393608,0.8775701619969198,0.5591454508007394,0.5106855084838487,0.060386015914684565,0.6898735289576595,0.3521599596455263,0.5833150396122455,0.1403616799670966,0.7471245683804981,0.346156789837648
20,2.9171244218208425,0.6311644431194257,0.9436615631357788,0.8013702873148059,0.9618560386300894,0.8572412699552818,0.8998227004922262,0.2570084617216696,0.9593984100524764,0.7673185150789246,0.9013654181085126,0.7425784020882881,0.7795157188740638,0.4820019135402077,0.9563544309398975,0.6283780940124069,0.9722351615497202,0.7769720780871251,0.7032960048990755,0.18623929406300385,0.9472768982194267,0.7188737480790109,0.7449079745564983,0.4019525891786215,0.7814335668849222,0.34389072070777216,0.8620450622572601,0.5251118453156153,0.9981561188347411,0.9908794081892983,0.9415345243014113,0.8056372565008557,0.8831591526527063,0.5833242725074439,0.8803557669104992,0.43535526615940573,0.949125096668759,0.392018025914899,0.859877450578447,0.5410505170411771,0.7685548999792646,0.4325881222857159,0.915330640234239,0.6389063017915795,0.6984999004806004,0.40432680577985414,0.9612681458179921,0.8713514422262354,0.71537008144151,0.30444939420352196,0.7466786981197897,0.5922992951931585,0.6401987926073045,0.2189087100364564,0.9256970780559419,0.3765993474382054,0.8628509368623392,0.5583937549781682,0.42557948870835505,0.887956652606783,0.45517047720174286,0.8681032516906939,0.42784581047185893,0.9048028297753811,0.5372083971035351,0.8940542177550579,0.697482610215397,0.9343984693685137,0.5110639416068757,0.6012076659128172,0.07826395949886536,0.49141188726358787,0.03386965496119351,0.7112678375027145,0.12177394907309515,0.9475976383011105,0.7562881310154523,0.8807779554589023,0.7140234658996001,0.7488180041277207,0.2784958187096063,0.7240058114010893,0.20189195196517243,0.6598305630790093,0.18309958661557763,0.5496816420433914,0.16841858669318943,0.8764667594785658,0.5129418375005443,0.5864534947743123,0.08771824320940644,0.6652178159362234,0.34850527299494316,0.5734474064575024,0.12093253335723175,0.7503055501629654,0.34638856822740494
21,2.8560101661542103,0.6426175747186406,0.9321966658141622,0.7533903299535418,0.9453719310104722,0.8280909134151427,0.8543229919039477,0.1843799476845106,0.9350848120493715,0.6704479057666116,0.8989487499064006,0.7300959199456256,0.7152120089987389,0.3793017394515351,0.977830339769669,0.6804718002492306,0.9765382881933251,0.7941108060780093,0.7548819969908251,0.1983907416156294,0.9533886985385869,0.7566120546627767,0.7391517815008981,0.4342921144372503,0.7867294589403495,0.3371377692358802,0.875945121883724,0.5701421436878568,0.9979264146085794,0.9893513520617332,0.9323799824914811,0.785179734117618,0.864334289244976,0.5547218154679018,0.8228719931158208,0.34005329280539587,0.9222285974258857,0.26244246169302665,0.8516967102189038,0.5954575956927142,0.9016878249503739,0.5326646862574029,0.9371893876175392,0.6493968753870859,0.6974270455709395,0.3880633140885601,0.9568982690891578,0.8752832347759555,0.6345839024410453,0.2341039546551395,0.7408745753392028,0.5712910607262024,0.6194307016993644,0.23227044545770845,0.9163487837114046,0.3641162968034171,0.8570919008527832,0.5441207520804986,0.4229708578668853,0.8703650200831514,0.46222066340232915,0.8414301358018532,0.40885338937387605,0.8747507089762797,0.4465437981950919,0.8901809375635745,0.681538049159067,0.9616438764654446,0.5505361269777989,0.5582425458484197,0.0418367053275672,0.5074441358372499,0.03719553179526976,0.7147863002374831,0.14940865397209335,0.9405744412933663,0.7380192821342743,0.8475544202282355,0.6808734706726207,0.7083200956523222,0.22073665284809754,0.6848665424446079,0.21839167054298786,0.7904095630902477,0.23927271706969483,0.5680394883326273,0.17285157665730522,0.8618015516908986,0.5081842848255187,0.5329083581099219,0.06017743040220889,0.6606338413265399,0.3386724378238877,0.5505805448993121,0.12065853705818505,0.7424740282156408,0.33755394323543747
22,2.8190377203503805,0.6486050036023949,0.9421751835094649,0.7246762502885385,0.922534142897494,0.7923161344570143,0.8622182298709518,0.2998477074488346,0.9007247653145752,0.6646106854745465,0.848993861368185,0.662672981404325,0.6719808461834481,0.2585543204332936,0.9714126955091271,0.643975643903961,0.9815622282356264,0.8126571336354084,0.7160824248880243,0.20742823677173275,0.9177636855121016,0.6275090657560899,0.784936929520858,0.46576587332211056,0.7865846943313036,0.3508438904885377,0.8016720315725078,0.4765849733293301,0.9982827535720971,0.9923570155954227,0.9636970793196381,0.7964179449347492,0.8791101844445928,0.5714064694816001,0.8541597358305091,0.4042912669859309,0.899752075124902,0.3454768048434438,0.8578582734891396,0.558446200862019,0.8639177005918078,0.4997105230997173,0.8915988777125271,0.5199627194878934,0.716641101735663,0.4063313386896318,0.9565970093116022,0.8778320919861946,0.6163133841705271,0.2608357602010608,0.7580117861039781,0.5997151511240161,0.6357174704019085,0.25118087898053926,0.8692506907008736,0.3029524117874103,0.8470203644897567,0.5323836842508649,0.4179026608034583,0.8801248947186513,0.42045477573542345,0.7845333874925473,0.34405725507933055,0.821990794576264,0.46549001183155586,0.8374785183459318,0.6202733835315809,0.9525801998451126,0.4946072106088557,0.5919101880534484,0.06853504964091282,0.4843320801512997,0.038022718076625876,0.6736653835106867,0.12605674100379974,0.9402911186424805,0.7307957157551288,0.9017540872519545,0.6941261617695773,0.7189522298634429,0.24859653878513568,0.6950102448960027,0.21284451848253197,0.7211839231596258,0.2178012199139838,0.5722667281933349,0.15918157314265047,0.8540669671778633,0.5093567356570918,0.4988152621674422,0.05354309395804695,0.6700393242004012,0.34825795278568805,0.5666761033287327,0.13971940883977238,0.7314261908652901,0.32731778136653844
23,2.7785354506844766,0.6240093413828228,0.956141764023737,0.7918932810061236,0.9281214794627751,0.7530347439688513,0.8631760415324216,0.18733649113977566,0.8860061957524299,0.6068355885411562,0.8518768121101725,0.6967443379540177,0.842298683231483,0.44459382968250954,0.9887985198254932,0.7866406967211984,0.9834109189035372,0.8226898926911875,0.7219669119420757,0.1706036479591834,0.9726012010645924,0.8120747839081548,0.7878567320955894,0.4842585033534917,0.7806104435006456,0.3673926445331225,0.8099986679979309,0.4532996126287996,0.9985850432007239,0.991777656610803,0.9847073871318128,0.8922716230073405,0.8981704536995874,0.5966153161442462,0.8690034788837033,0.42038215730660056,0.8815040013221415,0.264478936427337,0.8854553605930748,0.6547237019960801,0.8912265915119998,0.5530275885660094,0.96456576683146,0.7545805372347788,0.7170345723684945,0.43571058308160576,0.9666918717841748,0.8937035342626667,0.6283381372667087,0.24106113384401018,0.7442553588609053,0.5889932849562822,0.6259274011014018,0.26903539339344845,0.9085838801783299,0.35599356870919124,0.8643301361547185,0.5662871507269619,0.39084743236192887,0.8939790813090792,0.4631334621033221,0.8084858936626594,0.3013991992131481,0.8024648757015396,0.36397626024203933,0.8379543092431806,0.6477992840108825,0.9747501059040521,0.5739436952297412,0.61181913421912,0.06652257711404326,0.5473592923711248,0.052764798808738925,0.6694447168767119,0.10681420446990905,0.9361607613219309,0.7244111267031421,0.9277756487664519,0.7785510559584833,0.7433952816207167,0.25522411790109634,0.7177141213698714,0.2482910938652388,0.753492693196675,0.23517244384135613,0.5562323252667837,0.18513143980288999,0.8673347146095045,0.5163125038871541,0.4969138766838317,0.05084005184259498,0.6379429145025675,0.32948083107737874,0.5625411608724475,0.14257438361881644,0.7414311615276804,0.33568569609388754
24,2.7488818441852154,0.6535986683560657,0.9222588619405032,0.6836055726532183,0.9092799129086788,0.7737298289406636,0.8493354273942405,0.22730688846705904,0.8949614507402741,0.5893070848982843,0.8044943324632268,0.6196778849622826,0.7330449613398962,0.26695393570495424,0.9719098218372307,0.6858446159065628,0.9699130538785758,0.8340140027154463,0.6661509000185901,0.16944656729590632,0.9503714927038088,0.6804782658635679,0.7818438706397584,0.4693995825594383,0.8084794738880617,0.3721291232396188,0.8399886023424049,0.5021618541587208,0.9992229291449053,0.9959581450613623,0.9699667683743242,0.8362611617272765,0.8386799566109703,0.5307031339233044,0.7796855122553537,0.31877182861403003,0.914145770302657,0.3813615824827765,0.8482533525721705,0.5358508576384765,0.7807528696594558,0.43118657225851703,0.92319487248873,0.6072972953947091,0.7366862321060764,0.43249985144993147,0.9521633235616108,0.8770111348784186,0.6148109094537666,0.24943907932654147,0.7555712939428081,0.6037733533836488,0.6189098210080759,0.24463463292229212,0.8592315013544288,0.3137446102927594,0.840492862034466,0.5271314239525839,0.407691734366848,0.8666678411199588,0.40609666269974876,0.7861329846240092,0.3287108089909338,0.8270952435038301,0.3579637017563411,0.8009334034602564,0.5929583884097931,0.9522390265422305,0.5071984163710715,0.5809180284116805,0.05624011772158524,0.5391453240740977,0.042213734945246426,0.6844285694270282,0.11438345385804137,0.9426613964153804,0.7417685374351958,0.9063463728598324,0.7339898033691145,0.6946059161211814,0.221492231230227,0.6857430459867626,0.19145797898220204,0.652361740146773,0.19368906908230138,0.5612891665153716,0.16001346402531227,0.8430615859702213,0.5121353647701573,0.48507054423355467,0.05305669857031305,0.6632666672895892,0.3398331995801405,0.5556842757316582,0.11569891103411577,0.7237583962463009,0.31493891904621335
25,2.7078089595169748,0.6759583612829495,0.9137891033835154,0.7181656714822704,0.9388190572745092,0.8351421673494454,0.9026210705100955,0.33432310444863067,0.9395057885189164,0.7223490272184458,0.8656671657924211,0.6928150875123434,0.6628118847511631,0.291384972165151,0.9553389785375727,0.6144988507575807,0.9818818151596582,0.8545009661753146,0.7432519672528705,0.25533491238333367,0.9453357933378703,0.7254340428974465,0.8061692583416361,0.5410952866345512,0.7697193675737755,0.38790854890963583,0.8276451587074931,0.5575091294717083,0.9995736664842402,0.9977326133133727,0.9320773975208525,0.7642315335181086,0.830491179874797,0.5603380499289178,0.7543032060553304,0.3248931049470102,0.9145277767597683,0.3125777379663609,0.8331246071948848,0.5739970846349476,0.8237278511365055,0.4806564682864094,0.8776692250410131,0.5327636434126248,0.7749069952074141,0.48360196354991175,0.9584424660672971,0.8878612505289499,0.7310436596150882,0.3423432898723692,0.7379019473145735,0.5910918103942612,0.6255392862029402,0.27325643099976793,0.859302093488338,0.3246326635103792,0.8483402876705385,0.5548310893433054,0.43467243049862114,0.8447037189902387,0.43844414588513525,0.8044563768911186,0.3675110896249151,0.8634828087900438,0.4433857304409846,0.8726250084228611,0.6643072990659294,0.9322983678935751,0.4971058249159632,0.5977908602870871,0.07612785355150978,0.4854118087378725,0.045402529853457246,0.6306727987278191,0.1138157426029568,0.9430418854373365,0.756389751836929,0.8662005522126534,0.6723679131102123,0.6597162026779727,0.23215028583734848,0.6254554660876063,0.17692501033738592,0.716527498379804,0.21521331640519664,0.6076757670660857,0.1862048889878395,0.8626909369850815,0.5231100721416547,0.5797223896276422,0.07985726419023641,0.6390514271374359,0.32359450842421833,0.5540024125976721,0.1290426995716085,0.7269736826083282,0.33005310704352675
26,2.6918574029183686,0.6524309955032173,0.906646137419527,0.6939694905104548,0.9473172976820617,0.8329255684976394,0.8564714560776174,0.30800891057437946,0.8758563244202389,0.580362106274185,0.7936312257457565,0.632793202322059,0.6813585114266156,0.2965926981361399,0.9449065423085442,0.6247507858830448,0.9714920904546063,0.8441219184355998,0.6765099425632277,0.18910138631099616,0.9419076302127463,0.7065652220706891,0.8134122980464881,0.5077983737818272,0.784207603008641,0.3424910304444371,0.8350223839073486,0.49292565668030347,0.9992246583591595,0.9954136347186529,0.9202846552515126,0.7717631152439263,0.838684737680441,0.5487193205691167,0.8608648311410684,0.40589063813308507,0.8646075977851331,0.3260443065727847,0.8232207675039502,0.5195714966086695,0.8268359766011768,0.518942073038728,0.8872287707803537,0.555381986948727,0.7672912161270629,0.48243349786552375,0.9507626983393672,0.8821106903995458,0.6117284599427456,0.24998475231149442,0.7590460897384717,0.619522953939589,0.6337919506813658,0.2358572507407199,0.865116234264158,0.33712267101045423,0.8384232624988662,0.5370801754823249,0.39897145412536333,0.8426494324035019,0.4073578651961358,0.8128297951689032,0.3674430868615762,0.7892707955858677,0.33425361270359294,0.7901686646355794,0.5987902820369745,0.9161851650129847,0.45006490288871426,0.5745670745848312,0.06076646849629593,0.49244240980123305,0.036970043916818185,0.6823768625610346,0.12019315632953342,0.9359243938808598,0.7202117840148775,0.8463044098012594,0.6483324525059364,0.6933979088581748,0.2311904663991965,0.6516583188327286,0.16833061789378634,0.6987589110783949,0.21207864416604538,0.5716870788953441,0.15839925653413825,0.8471415241967446,0.499539466525592,0.48942126744256,0.05688837318844285,0.6464057600743236,0.3228385756823735,0.5528420835280438,0.11761720562677033,0.7130017697967983,0.3061814589426
27,2.6760901626138307,0.6901940324463989,0.9105735897639188,0.7333621408063487,0.9585371288409579,0.8739133991775924,0.8962858950956273,0.37345575405451015,0.8954155988621164,0.6609615199622529,0.8378141397407285,0.6816128847837253,0.7806263879784696,0.42454900398709494,0.9815450292641398,0.7608561449657434,0.9788429256725646,0.864489126541919,0.6761056852048046,0.20499840955325563,0.9452444493580094,0.7023503955208805,0.8167014180182387,0.563085022990006,0.8240617954354683,0.4290870902206381,0.8309811412859391,0.5261687159005488,0.9996266283751154,0.9971944172289382,0.9280537549383748,0.7992972421337566,0.8285277265346964,0.5626107047704398,0.8452868729937625,0.4164772018505869,0.8988308478209058,0.35037491676848853,0.8426134853099837,0.570621320963978,0.8575318356714797,0.542037083166004,0.9529334743490866,0.7368667387587148,0.7785569552878346,0.49169395184671066,0.9542636080801973,0.8826909604037222,0.6622102514959658,0.2704196950807858,0.765795997500383,0.6190096823560333,0.604483436303316,0.2765609366575026,0.8680215321421554,0.3694949610706579,0.8562767256046016,0.5808977563526235,0.43571588283520907,0.8409456362349041,0.4222775142433827,0.8000188844627192,0.37328938778948934,0.8239908919309215,0.434162893281794,0.8345095068443067,0.6432133484386224,0.9636047459048239,0.5658650250236069,0.5699694532196263,0.05026676184869067,0.5032412253886895,0.042956634270045334,0.6455815183506484,0.0971237925440183,0.9391979238004929,0.7165170542094803,0.866932157922809,0.6873161182958096,0.6973356332390428,0.24923755394843677,0.6674890227822443,0.19177877518933614,0.7311935506831045,0.20349562446191216,0.601606548933874,0.17466799839899283,0.8519275059568296,0.517822597570973,0.5199920771207159,0.06034195923971734,0.658539620755952,0.32804928487361584,0.5329694512970429,0.12792160684928824,0.7249469641571528,0.32701688502651177
28,2.6553717945434183,0.689175424213063,0.913326497757708,0.7030632081623355,0.9556773658629291,0.8727738250274852,0.8927036467820645,0.28599417703659846,0.9072054177382173,0.6723558766285853,0.8583073572114792,0.6896677493354899,0.70568163510497,0.4333490270568412,0.9216680186650386,0.5992388517744557,0.9756155596920341,0.8758139629781168,0.7715935954364493,0.23044724551467,0.9381614396101207,0.741605058176679,0.7992418191510754,0.5501500845393348,0.7870901349474595,0.37585963408379514,0.8038409626426921,0.5379333687932343,0.9997058354995191,0.9987086137404827,0.9243272973223539,0.7393057456284597,0.8598523457369387,0.5639329199200994,0.812673775545465,0.37689359124822625,0.8892290985978156,0.32899019588627415,0.7995534292334083,0.5481182989548918,0.7682483008248503,0.4741117501672284,0.8514798910678937,0.5249302675980679,0.7674200769765783,0.48105560038447936,0.9584354954319296,0.8794550311528018,0.6614184292755722,0.30194509669403535,0.7514757752046344,0.5993127704237695,0.6212218426158196,0.2787324266054841,0.8807482303800492,0.34602096081240447,0.8435519731227804,0.5559172347527529,0.43862264291570396,0.8491240256232152,0.3946804817130919,0.8225651513963813,0.38445492502166045,0.8307209833541563,0.43357454034667203,0.8586280134632516,0.6372005851641855,0.8903557586808433,0.45240374568804914,0.5397382565466803,0.03785875040385795,0.43195300592869146,0.03807187334507543,0.6599289302051882,0.14133185066359105,0.9421065493646138,0.7451989385359944,0.8511633806562665,0.6504979907501981,0.7135820521056004,0.2512827892029954,0.6283873209806187,0.18112641496645165,0.645531068430339,0.17060569411914456,0.5782379197177842,0.174977308483689,0.8673212052166165,0.5372993861880654,0.5289375074101086,0.06206865842915805,0.666088105252526,0.3299171704648247,0.5638541791190758,0.11707025609175342,0.7149013007473309,0.3188678533099143
29,2.639412123456048,0.6666666666666666,0.9150504886857802,0.7554489945623442,0.9577289702340227,0.866709672769194,0.8967177230261424,0.33526454659368926,0.8949602451819556,0.6665577357602075,0.7570898666924026,0.5729351155576325,0.7882191515640992,0.5060727011952086,0.9612867937159217,0.7140586457638334,0.9791842243495168,0.8941103067696405,0.7572042977552123,0.2526752843588083,0.9506909247762391,0.7518740792107419,0.8292746928086512,0.591358709362086,0.7947440252225562,0.3959852733681896,0.8621649239947075,0.5702765108611606,0.9997117322587807,0.9986457740813205,0.9629838950843989,0.8050519333828037,0.8511719637756501,0.5728966624201984,0.8242210532254488,0.3941743493034579,0.9023887716945937,0.3472580666877921,0.8499816257864475,0.5924374430603225,0.8121310785868308,0.5207072501562008,0.9153652870929505,0.6380641087580109,0.7808055390932329,0.48599757703836355,0.9564494535021872,0.8807883803097356,0.6525832775832775,0.2924304274294167,0.7920301921969627,0.6712023352510326,0.6526475867056742,0.3185292233591912,0.9091906950936155,0.39544192576478004,0.8594806844328614,0.5847019641901986,0.4009092941790266,0.8434002436151686,0.43828694815192576,0.7924791142593135,0.3579301617463181,0.7931813879529019,0.4063215562967739,0.7601522745808639,0.5480898260935624,0.9315708530998971,0.4937665107490896,0.5721169290073883,0.05096302648958135,0.5023493976210788,0.04735571456066812,0.6820854378725998,0.10727679244468957,0.9361849614553883,0.7525976696066184,0.9035597941690386,0.6799083576104784,0.7178315651967243,0.25261599919503436,0.6698379685813044,0.18619393681874907,0.6976511839606208,0.21489428960179452,0.6093427315949528,0.18051388780098077,0.8635561475762016,0.5328840501649615,0.5167342679657092,0.05811109454300381,0.6740009103565741,0.35230032363253483,0.5762673201690991,0.13064801671637563,0.7245723605019347,0.3217032312346189
