epoch,train_loss,train_accuracy,train_1st degree av block_rocauc,train_1st degree av block_prauc,train_anterior myocardial infarction_rocauc,train_anterior myocardial infarction_prauc,train_atrial fibrillation_rocauc,train_atrial fibrillation_prauc,train_bundle branch block_rocauc,train_bundle branch block_prauc,train_early repolarization_rocauc,train_early repolarization_prauc,train_incomplete right bundle branch block_rocauc,train_incomplete right bundle branch block_prauc,train_inferior ischaemia_rocauc,train_inferior ischaemia_prauc,train_left atrial enlargement_rocauc,train_left atrial enlargement_prauc,train_left bundle branch block_rocauc,train_left bundle branch block_prauc,train_low qrs voltages_rocauc,train_low qrs voltages_prauc,train_nonspecific intraventricular conduction disorder_rocauc,train_nonspecific intraventricular conduction disorder_prauc,train_nonspecific st t abnormality_rocauc,train_nonspecific st t abnormality_prauc,train_normal ecg_rocauc,train_normal ecg_prauc,train_pacing rhythm_rocauc,train_pacing rhythm_prauc,train_premature atrial contraction_rocauc,train_premature atrial contraction_prauc,train_premature ventricular contractions_rocauc,train_premature ventricular contractions_prauc,train_prolonged pr interval_rocauc,train_prolonged pr interval_prauc,train_prolonged qt interval_rocauc,train_prolonged qt interval_prauc,train_qwave abnormal_rocauc,train_qwave abnormal_prauc,train_right bundle branch block_rocauc,train_right bundle branch block_prauc,train_s t changes_rocauc,train_s t changes_prauc,train_sinus arrhythmia_rocauc,train_sinus arrhythmia_prauc,train_st depression_rocauc,train_st depression_prauc,train_st interval abnormal_rocauc,train_st interval abnormal_prauc,train_t wave abnormal_rocauc,train_t wave abnormal_prauc,train_t wave inversion_rocauc,train_t wave inversion_prauc,train_mean_rocaucs,train_mean_praucs,valid_accuracy,valid_1st degree av block_rocauc,valid_1st degree av block_prauc,valid_atrial fibrillation_rocauc,valid_atrial fibrillation_prauc,valid_incomplete right bundle branch block_rocauc,valid_incomplete right bundle branch block_prauc,valid_left atrial enlargement_rocauc,valid_left atrial enlargement_prauc,valid_low qrs voltages_rocauc,valid_low qrs voltages_prauc,valid_nonspecific intraventricular conduction disorder_rocauc,valid_nonspecific intraventricular conduction disorder_prauc,valid_nonspecific st t abnormality_rocauc,valid_nonspecific st t abnormality_prauc,valid_normal ecg_rocauc,valid_normal ecg_prauc,valid_pacing rhythm_rocauc,valid_pacing rhythm_prauc,valid_premature atrial contraction_rocauc,valid_premature atrial contraction_prauc,valid_premature ventricular contractions_rocauc,valid_premature ventricular contractions_prauc,valid_prolonged qt interval_rocauc,valid_prolonged qt interval_prauc,valid_qwave abnormal_rocauc,valid_qwave abnormal_prauc,valid_s t changes_rocauc,valid_s t changes_prauc,valid_sinus arrhythmia_rocauc,valid_sinus arrhythmia_prauc,valid_st depression_rocauc,valid_st depression_prauc,valid_st interval abnormal_rocauc,valid_st interval abnormal_prauc,valid_t wave abnormal_rocauc,valid_t wave abnormal_prauc,valid_t wave inversion_rocauc,valid_t wave inversion_prauc,valid_mean_rocaucs,valid_mean_praucs
0,5.0534799976386315,0.13781024073936052,0.662221241166124,0.08344062149051942,0.6007142065478732,0.008670938193071485,0.8461482422799621,0.12957527901786361,0.7915357358148417,0.20429826558336678,0.6051712664450306,0.00820205588558693,0.6633337093660823,0.10073647122123092,0.5360416550075615,0.012361367775703035,0.6204450988663258,0.03957461248902609,0.7335999520167162,0.029694177529746416,0.5139265983680439,0.022593093887096946,0.6017668031856029,0.03324517230123914,0.6440020595292786,0.08054034880373141,0.9237790707001283,0.7238112397585439,0.9605490314162402,0.703797186245787,0.7386978690014147,0.15580758730986652,0.9435189830244936,0.27601878067735386,0.3496003514745549,0.004127084687586312,0.510747268715856,0.0319706742646223,0.5581834381233914,0.04182841449530293,0.8341466015807225,0.2322888417092903,0.83761567450396,0.3457937419218124,0.841263876814447,0.40013205595257345,0.6177203067112419,0.05529091414862946,0.5370226695044146,0.03208532423915644,0.7773206464417168,0.394305466984019,0.7698006019066328,0.19410186464567608,0.6930335753274098,0.16708813773916928,0.1433256316613252,0.6567252088241594,0.07523150215785085,0.8312923466034992,0.1302495014027779,0.6564643701903552,0.07596876578990827,0.636911711243516,0.03780325810105599,0.49322377640638193,0.021147993111592843,0.6146647507669514,0.040626234822282364,0.6300827245569367,0.08000031361956311,0.9237296826908492,0.7220465733583242,0.9660020324142746,0.7182312878380316,0.7336100058472026,0.13541868313350255,0.935901257592434,0.26373992441680316,0.540274054785428,0.033364864512441306,0.5488853077120114,0.04280385285140236,0.8448258939229877,0.35157758405051476,0.818673589385165,0.354730477524035,0.6006708686549199,0.053710956068752716,0.5391816547919319,0.03597287302929607,0.7848701014773908,0.40869360391302223,0.7585438651965932,0.1960881715485351,0.7112912212138415,0.19881086427629957
1,4.70228733403002,0.2584035179250205,0.9156147258657287,0.4011538010144631,0.7394320080232262,0.020342986756149657,0.8875036707343454,0.3145922579687042,0.8985745851669711,0.41818558096952746,0.8251889782529641,0.04364498001604933,0.863051444327661,0.26548297322940617,0.6014904035111757,0.016235730508105756,0.74032896197914,0.053653870760955645,0.9491172357905066,0.3212693101915306,0.6569191821968291,0.04678166931801968,0.7455022414292467,0.058961548437881955,0.7277713708310405,0.09539526285615926,0.946040375835534,0.8093031025439127,0.9745283971147793,0.8023628606412875,0.7750902627401225,0.2507787631954288,0.9629219465844179,0.44449838841714023,0.7215327182528621,0.01705502653134334,0.663324849675676,0.0712871901004836,0.6561508107599513,0.04367485379661688,0.9116589852963353,0.2593168843403033,0.8763151771890285,0.40978009108590674,0.8848106202465635,0.5908420703613566,0.6903168036079931,0.07736430418107088,0.6053287530709158,0.035009305999230085,0.8214252891704636,0.43441136241003675,0.7713523236058563,0.1615892861804753,0.8004343123561283,0.24857590237736713,0.24700007453230977,0.9180534652596827,0.38633652094012255,0.8665482334536246,0.27579422553687954,0.8671687100020717,0.2622378496075266,0.7324239241290801,0.04506088811569404,0.6247726026443374,0.03974119447629712,0.7280497100143839,0.05702131918856662,0.7155467752786023,0.09489305021413139,0.9423240643764368,0.7989562675315554,0.9778352551822838,0.7975301131535478,0.7835373614854746,0.2236166375708542,0.9575664465370348,0.3564639834525017,0.6682343655595552,0.0689375724877915,0.674987600480971,0.04853983044776976,0.8771987639702471,0.40850388890671985,0.8575962360359618,0.5350839093790124,0.6742093702938707,0.07501721771589089,0.6037607809065648,0.041084476301160286,0.8229560323445456,0.44052661846323343,0.7668864220340386,0.1729499003134666,0.7926134799994089,0.26991028756856433
2,4.513590605030124,0.3100047203796179,0.9338203519213355,0.542532864505549,0.773507452455742,0.02127600073441233,0.9483691489017059,0.4779755221977416,0.8989551317203752,0.42734636653187236,0.8710792665705547,0.06942366210817813,0.9052875926716756,0.3532566844664839,0.7244861792163666,0.030374464467990678,0.8379662098854499,0.09471558768062176,0.9688485610152153,0.5870140325909953,0.767445829601914,0.08793948109810437,0.785816228472318,0.10685713208306045,0.7428448688571107,0.12491230038866062,0.9481427696100704,0.7981928312745826,0.9803746874800396,0.8234177411515798,0.886364750832058,0.456331242923249,0.9754304796943667,0.6084418412035567,0.9009817195213401,0.06312706010392048,0.7544124651511352,0.13723900811939604,0.6841478923431553,0.059975462521409964,0.9097632800716733,0.23676989321444972,0.8907030916889656,0.46444164316663417,0.907386941226043,0.6302480992800767,0.793835356931731,0.12746578277915294,0.6738366008158113,0.05616099423955005,0.8107500365893461,0.40998729022339825,0.7877277757952283,0.18584141409455834,0.8485494103477205,0.3069717078134302,0.3070731161958709,0.9344240435835895,0.5225458428278235,0.9364259136110528,0.444254908572671,0.8952507859564535,0.32605342261045367,0.7958593181962358,0.08783193527879962,0.7462083032312911,0.08354555225713038,0.7536508875538299,0.10363608533064554,0.7420940283739207,0.1423223062599188,0.9471642174196812,0.7879341576285015,0.9792758343955058,0.8297891385879476,0.8641634221822903,0.40846650839109083,0.970075400222459,0.4614840246679245,0.7498227855641504,0.13224388840610776,0.6817815376056203,0.06052979592042067,0.8849237489579841,0.42837377730520415,0.8769435542749795,0.5867515193120817,0.7785060437389821,0.12846715920272966,0.6706593099050451,0.06563045303756916,0.8055709846446236,0.40913672847098187,0.7868815838246807,0.19763788565213206,0.8315621949074934,0.3266650047221123
3,4.395361832424927,0.34083625251546545,0.9432830109835544,0.545936359372578,0.8007626621849466,0.02205853854000908,0.9605073399011175,0.5649280793875923,0.8959936907105907,0.35651887972846674,0.9159217062405742,0.1628886955981105,0.9163602650559449,0.28633649362128305,0.7729840040293868,0.03367439522443691,0.8484569014569429,0.0985928812234185,0.9756923920237802,0.7095240371092346,0.7399773053812915,0.07669220172148775,0.8309758657809957,0.20861032838031976,0.743459543573243,0.10181508369697938,0.950208131899406,0.7683401735152502,0.9859480646574142,0.8293116656710152,0.9199164054618522,0.48475291702477924,0.9836983415658559,0.6555019050725972,0.8946508097306508,0.06497527029151662,0.753816760451397,0.12236734015075246,0.7049993607871957,0.07160736690799965,0.8980376397151859,0.20116241940121446,0.8672151824656735,0.39782542487103767,0.9181628771363857,0.6233680202277603,0.7326779395799751,0.09952639780427382,0.69088256402368,0.07095966487909929,0.8190221493654904,0.46202788057950933,0.7760142769062676,0.18729701687122546,0.8553701996564922,0.31563843987969026,0.3337556830886189,0.9447129414152627,0.5376284577103743,0.9516368332414383,0.5170874904821359,0.8984863012839559,0.2750755805237071,0.8229261212529341,0.08415336712832913,0.7111843231465121,0.07589628656626109,0.794663885501011,0.22499613605221291,0.7305164481298145,0.11198113749474625,0.9490475897993222,0.76620615403431,0.9837113673576379,0.8157465423856017,0.9013928107930803,0.445206902768023,0.9775196981079334,0.5281346141715385,0.7519755261120046,0.11577309710904807,0.7009573529963601,0.06330679069131549,0.8627937841594298,0.393451888073127,0.8950927625260314,0.5567685727086337,0.7158377509139308,0.08718679455677357,0.6866156557843192,0.07085850582119772,0.8157000897342295,0.44865393532055775,0.7749772057458543,0.19773616365520844,0.8352499183158454,0.33241307459226854
4,4.3028512790553695,0.39954286850016146,0.9554439842222868,0.6253810629096057,0.8165901037350327,0.02816824325210275,0.9650481088272148,0.6704897866007739,0.9107718537422338,0.41056183492388004,0.9447588185236531,0.23142832575408537,0.9290859894674005,0.37034807833064975,0.7876022704539299,0.04782418152801263,0.871028592191354,0.14179218035109842,0.9765144482462433,0.7172586871624362,0.8001123831123891,0.11063841002404914,0.8449754790486494,0.23813697206117052,0.8232555360165432,0.2003563631058976,0.9581386737973696,0.8213137628048014,0.9864681138393875,0.8509482272294308,0.936934798362398,0.5914320105975258,0.9841382909649123,0.6831895270108866,0.9373198014775345,0.07484256750806915,0.8735080351625162,0.25685881885523265,0.7687659008519678,0.08852595015976764,0.9201034309963863,0.25913733858406174,0.8945073224957893,0.457997056049808,0.9445322216834358,0.7159484388349844,0.7892475604983556,0.13505402839709074,0.795560693464359,0.1176433976345109,0.842575436326768,0.47530183735391135,0.8145782769628456,0.24539491824896328,0.8873679278642677,0.36792200020280025,0.38018931206678097,0.9546344700807827,0.5995458414019997,0.9557840801605727,0.6392797454812639,0.9123167128790465,0.3358108121874175,0.8310401386835313,0.10746934673852034,0.7707648965215095,0.10362086785363744,0.802796656184634,0.22840674242311776,0.8080882323082608,0.1929130958703556,0.9535056082919063,0.8038993818523614,0.9819395890945322,0.823164406681562,0.9090882998901866,0.5228364642232874,0.9747899159663865,0.5475000274631369,0.8738493826214973,0.2437853324982516,0.7737568054597039,0.10716063977336744,0.8843675516466061,0.4258290059640558,0.9166564706603315,0.6413378952616127,0.7706946720547523,0.121679691072092,0.8010932239758553,0.11707007017569752,0.8373152291239573,0.4646159565684465,0.8076972987131684,0.24168427149062377,0.8694831175956431,0.3825057681568846
5,4.234532141400575,0.37695957864400886,0.9602719312662384,0.6023388910993939,0.8422512205143731,0.033053688899877164,0.9686292824798595,0.7363899715417687,0.8572150473000956,0.2844066814127343,0.924957958684139,0.22184269843627138,0.9164878011103268,0.3914910804377706,0.7010058993463825,0.034946898685892236,0.8806389680634237,0.1607193780882119,0.9697274568798098,0.7084998557719566,0.7629966930577344,0.11505281737179622,0.8444485632028357,0.2740510039653544,0.8037773058252428,0.19557871298755308,0.9628229061401297,0.8457643854472109,0.9796079585374978,0.8724308419199734,0.9073451505430079,0.5068418445908024,0.9769097620704735,0.7327642297116964,0.9266745927852457,0.08515228809871292,0.7877285158088712,0.14973235959673364,0.7272052899540945,0.08826481827265446,0.9024787648455386,0.225504482005764,0.9010533369644205,0.4990547983296526,0.9324147551398456,0.666203022416353,0.7418064689057056,0.11740650028844352,0.7290188748490819,0.10295078592809549,0.8385503864774908,0.46925307992153187,0.831057807198347,0.2581399284852071,0.8683493345365465,0.3606859632196697,0.362599686964299,0.9583990836100207,0.5759875622437512,0.9576252562549069,0.682106416479497,0.9018619458677223,0.3500584802281161,0.8613329380706302,0.11956296827546438,0.7103867278282138,0.07256789516606167,0.8043089271625937,0.25073534334970304,0.7805451611243989,0.17277556284230294,0.9577752983815985,0.8249204627800177,0.9808458619995677,0.8784779896072501,0.8743525292716668,0.4422558357923219,0.9690635609753258,0.6076977706851544,0.7781732659365348,0.13887313722700312,0.7156054065165999,0.08271083682751944,0.8924691494980237,0.45862852260413717,0.9044615187928775,0.5825462662788172,0.723524983388059,0.10946214063116355,0.7230767236880006,0.11446414265562935,0.8275740638174174,0.4450533963171882,0.8263577475331841,0.2679976897860148,0.8498810605114391,0.37773065367247965
6,4.1667983402054025,0.3920399493180294,0.9487352652173457,0.5576503447151953,0.8122048154804706,0.03321936882286482,0.9653127361157413,0.7014585010104029,0.8601632053009739,0.29184277795759106,0.9433145539559448,0.2615605493223105,0.9387648962301994,0.42782103039875635,0.751760058511018,0.04125760398140535,0.8559877630992788,0.15632595192835214,0.9800871128438798,0.7738331730073621,0.7523288052892184,0.10761067382452794,0.8393115103935016,0.2553530723199982,0.7997309779704758,0.22352717072690387,0.9646902780349518,0.8452591087036867,0.9853020379951274,0.88914584648099,0.931638588810598,0.5296597462697872,0.9870841454502173,0.7106684983097495,0.8643684874099449,0.0386116448204829,0.8238547528212317,0.2256017675108167,0.6996891668803156,0.07318658689213937,0.9238564816793048,0.2513088082890298,0.8741112306127565,0.4289716830455549,0.9374021227373303,0.7009468080975587,0.7333923549532646,0.10391934721591192,0.6979205565758282,0.09448920859557061,0.8202345767072428,0.4786434555892582,0.7953816685831311,0.20861678157211822,0.8648703134484345,0.36194190420801253,0.37579190579116045,0.9448275541921545,0.5188320720464029,0.9495144333554999,0.6234485834705688,0.9293185220169444,0.3464791628412393,0.8444366774509947,0.10974811200382252,0.7061590954590163,0.08274095436533804,0.8045840622874811,0.2190999322292698,0.7788194204746494,0.1937019654349202,0.9602871978104853,0.82338473948794,0.9880641626726495,0.8928159282179751,0.9042014289992728,0.4429425662321037,0.9734734330322566,0.6073942534813972,0.8103380051568763,0.2312143295520054,0.676175037973527,0.06621653079480433,0.8645733502789025,0.38417180532875667,0.9040730139711701,0.6042259223590216,0.7278216098404094,0.09599328657260858,0.7038716351507738,0.0861574675699404,0.809746188765077,0.44334417515096775,0.7959175305587189,0.22731408812385853,0.8461159136550979,0.36838030922436527
7,4.118816148100165,0.4080892400188815,0.9587580907987817,0.6374949370491967,0.848324635969665,0.029438286743869228,0.9702652856693487,0.7582440354445346,0.8619936913164823,0.23664653058868423,0.9549577371711686,0.3213827625418925,0.940541722396974,0.4790458786228247,0.7617072532177521,0.04248951526685956,0.8968455025578959,0.18801172358202886,0.9717808850017902,0.6609283990460084,0.78641201638823,0.13448066246270424,0.8542783033108865,0.30581109497985093,0.7892751646118716,0.20711944854392453,0.9661559485875411,0.8512072758117823,0.9750915603642568,0.8845351204167534,0.950200193291767,0.595434806256977,0.9847375633743913,0.6848185165217198,0.9203477410989218,0.07767936019747847,0.8109065994498749,0.19605604883043912,0.7069605188419822,0.08922170917381232,0.9247229621473417,0.2857732712687614,0.8655133405270411,0.4371034357243333,0.9342296565863063,0.6564614791575257,0.6517200050915064,0.09668469785160859,0.6803638209884206,0.10878278446324165,0.809460440938725,0.47533229723588394,0.7896537935444945,0.2526617258999392,0.8678924782016699,0.3728017616801014,0.3867481553253335,0.9618122553073238,0.5922397834867774,0.9530602830176206,0.6820724908480559,0.931054243429603,0.4122712285714252,0.8818040997525948,0.12298398963341682,0.7444496186107508,0.09040565483722746,0.8111413684132238,0.25669247359697805,0.7651401403941921,0.18591848937631858,0.9596677178753587,0.8215296318854326,0.9790584306680881,0.8662910880885211,0.9222798920406737,0.4964974677058903,0.9740998270410036,0.5548151295925712,0.8076742573162119,0.17746786103943837,0.6819863947908968,0.07922512848723093,0.8600109888961506,0.3923928161210155,0.9029306386292342,0.5698240302488301,0.6359574195460437,0.07988452522287645,0.6944680263072245,0.10020683302397496,0.797881697066309,0.44380678931818074,0.785710731152361,0.2515473019288864,0.8447467384344665,0.37768803752700253
8,4.0644566771827195,0.3922387021440461,0.9303422351061114,0.554742193322523,0.819344177715852,0.03512172390183037,0.9644164185546348,0.7013530169892922,0.7878821160457722,0.21514167240192944,0.9342840239307846,0.2456599597139238,0.9038144816005225,0.4683041697097036,0.6878418208402403,0.031221595456782405,0.8419752338112716,0.13299037484131165,0.9651919651885843,0.6809598509615747,0.7875134423439633,0.1325850442897123,0.792901187374333,0.22051228897810093,0.782796191970515,0.1513382299401027,0.9673538944663275,0.8508098980492538,0.9838917631600559,0.8831456319235114,0.9187826127712192,0.5295310637739457,0.9750050563146347,0.5946455241022247,0.9039170104842194,0.10130486256653203,0.8128718493876574,0.1946311845171495,0.6204633287197503,0.04768091229191228,0.8943263036228923,0.26268480935273597,0.8811292126395833,0.4547053776351329,0.9460000477707897,0.7434433427456881,0.6700353816090139,0.08046332403339358,0.47753055335591066,0.06779281053693337,0.7935327370209393,0.44196937855566054,0.751308784038692,0.16358945224604432,0.8382481473017027,0.3456279881860348,0.36476112394723115,0.9225438529934263,0.5099804104277774,0.9432283490734088,0.6174658336368125,0.8839375110016604,0.3863881474168392,0.8105043198309643,0.08281172320739405,0.7462177327867092,0.09098519033387363,0.7537241678013155,0.20272389950901248,0.7481635188967712,0.12471878266771382,0.960861053431832,0.8219965342612062,0.9838147273011875,0.8611890831417587,0.8843227227998117,0.4572075091698362,0.9556548710960477,0.5241561468574061,0.8053385582871683,0.18357484281716252,0.6024616308304251,0.04973222034344592,0.8752393722422251,0.4181902477281365,0.9135410360199018,0.6303183007258589,0.6505798436770145,0.07462493593433153,0.5036330685538393,0.05760621639808017,0.7853922500780863,0.4048226465249714,0.7567454571196673,0.17002347476056612,0.8150475812537611,0.35097453399274653
9,4.0146412408555365,0.4275173287620183,0.9524134621100593,0.6032037790127264,0.8673303676179251,0.06030465740870386,0.9713067814269727,0.7609877573778584,0.8207562114845176,0.24802646180182344,0.9623988193358671,0.3105334313223837,0.945767331570027,0.5308630294836499,0.8026224141712964,0.06763172321852476,0.8977497841590483,0.2463740655779265,0.9807560818417079,0.7823998790240348,0.8396539927493243,0.1836316276399566,0.8698929984703703,0.31222161651105573,0.8378932448023122,0.26322277109360664,0.9644124365120995,0.8414996114784019,0.9895965926199665,0.8898414978436889,0.9688613024213738,0.6703669285671777,0.9912802381140663,0.805423441871843,0.9391198911402825,0.14662906470500245,0.8451729603568823,0.25963989919845554,0.7234668428875034,0.08816597030776166,0.9012139696293059,0.25719492337728816,0.9013170806767138,0.5151289478020324,0.9734958172559293,0.833521292738977,0.6896104393321314,0.12941179489843685,0.6414904161706131,0.09876968942694415,0.8363346714423251,0.4689890096711027,0.7957944562353961,0.24075815553810304,0.8811426386359238,0.40825927026528713,0.3979280017887754,0.9432649146278879,0.5398877393383136,0.9491013524112886,0.6693227174179321,0.9319274562950257,0.441785591441505,0.8600837127367308,0.1369855224349193,0.797386272308152,0.10522406034007811,0.8216788978650779,0.239262572550706,0.7971522529802633,0.19973725554434324,0.9558874201150426,0.8027414965613539,0.988191623372267,0.8645332673946232,0.9335333504470971,0.5414798005488933,0.9832442332442333,0.6473432815966073,0.8213147694297653,0.23115457810513318,0.6992457910974716,0.08809651799516036,0.8886143138612022,0.46846084083418293,0.9477955494696493,0.7091611744574609,0.6734701741645704,0.1101465460742882,0.6659794794917698,0.09747516869890746,0.8273024265818668,0.4321845051472848,0.7999017438981189,0.24931607937012343,0.8571092491788148,0.3986473008343061
10,3.973769663402046,0.46351643437430123,0.9512882946991498,0.6210352909769419,0.8734273881803387,0.04551197690603624,0.9739178675149677,0.769149727788365,0.8575909681039069,0.31034323716641804,0.9706307951023483,0.38319442398967635,0.9495211987231966,0.47857428075455954,0.8183724982776688,0.05991993788377514,0.9283691557037861,0.28341470619093695,0.9868540819030044,0.7954929976338183,0.8302168753667711,0.17905359010058816,0.8926943581163846,0.3389606995309463,0.8551083112642978,0.2793447425881663,0.9636178025588263,0.8376540345810213,0.9871612466124662,0.8784513853488466,0.9623351389357683,0.6534623859314225,0.9901719991856536,0.7846751521706036,0.927302691228023,0.15015223484071505,0.8407096375345225,0.27572504229964795,0.7586619230064131,0.11910059873162522,0.9200476526294935,0.2689727541126015,0.8888318172127699,0.5172015561185461,0.9722425083001749,0.8270889005226584,0.7351154523546382,0.13789947843113629,0.7281783824341882,0.1357150189418677,0.8156813823369713,0.495014637976197,0.7858842367381937,0.2750271391342818,0.8909205255393817,0.41923599733274614,0.4175299992546769,0.9449533721287979,0.545065649858739,0.9450554103776938,0.6688292799770935,0.9309043829749873,0.3733453081316619,0.8933269530125362,0.15422786779704376,0.7621239420764171,0.10001800185963156,0.8443403586770375,0.23345972906259244,0.8028219273204228,0.21916036503004396,0.9524388086420862,0.783012292110243,0.9822844535215677,0.8221202287046452,0.9161151043226514,0.5061265224931476,0.9763415241356418,0.6346615024295907,0.8220858543310101,0.2436699141391187,0.7334029990520895,0.11901268725343164,0.8747668979399236,0.46355419611656545,0.9423718552188232,0.6798956868454226,0.7272370198945418,0.10979919265935822,0.7339808016352171,0.11728998185534177,0.8002922514982389,0.4415639621169047,0.7832233388330584,0.2949291438366413,0.8614772239785653,0.39524955327774824
11,3.9239437416862613,0.35161859332687384,0.9496288460798746,0.6273774709723163,0.8466016562385837,0.059663835937351195,0.9760260133578154,0.7935553323860498,0.8254667392990915,0.20259362219008198,0.9421997437833308,0.2587325149414509,0.9621747800851278,0.5711418818733047,0.6904164728842986,0.0635979287425005,0.8926643315106764,0.24783391745889072,0.9793548057357588,0.6981577059908808,0.8042281973643408,0.16741642240253254,0.8862631052319361,0.3934482257141564,0.8015918916868932,0.21985048695412004,0.9745058207553474,0.8938332709353418,0.9908761850665644,0.9073143085898062,0.9660507766536166,0.7010750106591512,0.9911531725011486,0.8091369885787211,0.9295215131859559,0.20445724086060518,0.85505898091713,0.3287500827200174,0.6230212318058421,0.07120184861252475,0.9273568522990964,0.3393505994843074,0.8875755109138017,0.5126755520320868,0.9652367162633368,0.7914115673647529,0.7212750708496574,0.15949240304374554,0.5745325308105537,0.07901130979017565,0.7894828149886667,0.46112011008136394,0.7530865221654819,0.20703111910278701,0.8655903954782279,0.41420118297765474,0.31102332861295373,0.9418954840324874,0.5529497549081684,0.9526034283574352,0.699987532048374,0.9437677297027746,0.42981398275922095,0.8536750281807668,0.13113367447531546,0.7384218115771729,0.07177717338821844,0.8051229090824243,0.2583948405862869,0.74154785544217,0.1656966760010234,0.9604122494249782,0.8367168656598486,0.9865237019755166,0.8573967021380428,0.921831814486801,0.5291641172170194,0.9793044296720768,0.6826575758046454,0.8297333061023037,0.2748419993324366,0.5877108937932249,0.06413141297497013,0.8665933537676961,0.44505224197640214,0.9238574925854431,0.6298507348832929,0.6983741444576268,0.11515659604727135,0.5992710670812398,0.07737794325342881,0.7774881975186848,0.4115915753688471,0.753991172270492,0.22768848906645656,0.8348487405005954,0.392704204625751
12,3.879424142018925,0.40555514148716804,0.9272753808926016,0.522585511791796,0.8383238423746526,0.07991186339183502,0.9687547928556276,0.7784977924490483,0.8381282024285814,0.3427314145848935,0.945073320793238,0.30249239292452434,0.9238357016571092,0.549884943111417,0.7258105892334838,0.07751312614915543,0.8670892484266937,0.21377998130993267,0.9663359809907512,0.7175527372340206,0.8017900911872178,0.19261418283783596,0.86513065191466,0.3183123685029793,0.7901628361638202,0.23594692883491786,0.9763629783707731,0.890399279333524,0.9835196191818821,0.8265686435916467,0.9462098748936604,0.5838634060302297,0.9832958374283493,0.6473977046402545,0.916566655752502,0.14997818383033693,0.7406605392008365,0.16858861923456,0.5936489410913963,0.05900592015677106,0.9174616481792309,0.3524955871849207,0.874479896336946,0.4818212456139754,0.94805123748631,0.7003143125464727,0.6582181777792465,0.12714915057555173,0.5142103709038175,0.08367012878228502,0.7578054397520072,0.4409475135392429,0.6578198994163421,0.1382565773412056,0.8433085290266054,0.38393382752012817,0.3648356562569874,0.9246108848202421,0.44166730927147213,0.9347755551847196,0.6609912258702272,0.8986722752968987,0.3873209419243859,0.81124589487964,0.0965254492987056,0.7341506581829682,0.08801044180512639,0.7894798244774012,0.20137177813677315,0.7364524409936963,0.1580920591950872,0.965435359147106,0.8478977927015918,0.9792529759464516,0.7755380061726987,0.8969671201814059,0.43978094037890314,0.9651949137243255,0.4976075381419529,0.7194580599593237,0.1394437297388854,0.5704245774782315,0.061596587875437786,0.8541684251312116,0.4114851800768753,0.9096411428402376,0.5595377700084849,0.6302185069397344,0.09174941983057087,0.5325286461165349,0.0748280679065827,0.7448655314091414,0.38535873226592215,0.6681987662966651,0.14562191686784823,0.8034600820529441,0.3402328888140806
13,3.839314059243789,0.3918411964920126,0.9582344661908642,0.6627503664749278,0.870477135967734,0.08889041421616412,0.9755336699087568,0.7777457211546658,0.8426411163562684,0.24063607216908436,0.949089258651466,0.32346580375567985,0.9611550630801682,0.5670792771898907,0.7685507137302123,0.07597456579285986,0.908956660319563,0.26449849156049754,0.9784677648316779,0.7604514822856476,0.7423557653675081,0.16580411808954715,0.8769134601272255,0.3821879914311881,0.8027744493386659,0.2733594564055204,0.9724593480230034,0.8715685856883026,0.9907061240225198,0.9247528334731112,0.9628936614312009,0.660158180936015,0.9881481393095649,0.7714431970603904,0.9354024539570683,0.21216691660080914,0.8426758079204212,0.26668524345566424,0.6437618031857997,0.07722477881128274,0.9232897370983172,0.3074889966472619,0.8671679361306399,0.4335427521344541,0.9584510812826846,0.7221537023857698,0.6710466549047974,0.1277249201854489,0.5990345317592174,0.10845346555714094,0.7642998680092232,0.44404997407654817,0.6902537060340688,0.16925636083829623,0.8632592452668708,0.4107505257067758,0.3456063203398673,0.9495644554404411,0.5572929226878713,0.9525425024915284,0.6575263982300129,0.9303161860968424,0.39182965219112736,0.8678602624349159,0.13748453792024518,0.6509912638795802,0.06709607713502938,0.805300580262895,0.2398483718877654,0.7513508812537477,0.18880551008167704,0.9590316986847335,0.8233426322624262,0.9798202133289605,0.84402549023908,0.9021625736248376,0.4879171293001898,0.9640997251291369,0.6098388366903906,0.8117004076144767,0.20529085368659156,0.6014617156692396,0.0726314395926234,0.8448392783502668,0.35032740967820286,0.9130433863842636,0.5489515307069123,0.6535458701038634,0.09137085305951197,0.6137493563710592,0.08917245258479961,0.7410302156400067,0.3613431550791875,0.6998360696117396,0.16949570028185454,0.8206445601248703,0.36282057648923677
14,3.8065889701941353,0.41762937566768527,0.9524941165774391,0.63882169097694,0.8526826987019025,0.11348951988434466,0.9734447634165992,0.8168566420035279,0.7947745295461192,0.22435501523216977,0.953667424117963,0.3103970174079039,0.941974511932032,0.5358787316252205,0.7544295272224828,0.09245571517365007,0.8970970870341678,0.24873837452038666,0.961959240729518,0.7542477953768834,0.7364023337223152,0.17145231236789146,0.8543106007633081,0.3191541476782261,0.8119591115841556,0.29414612631330306,0.9772698381646948,0.8910185355553423,0.9924357052913962,0.8729244260409585,0.9615303495925892,0.6674097120099336,0.9880666898440669,0.7446003836710551,0.9266913057676983,0.1971221612979803,0.7821627641220044,0.17424319628634205,0.6335672258834719,0.08440177767269777,0.9137305715949504,0.3283228867109284,0.8754439907159379,0.5212816344962331,0.9719175583595054,0.8290042335808729,0.6509492129124763,0.11739366723486704,0.5563332584822072,0.08410761258083423,0.7806163215805154,0.460849203345538,0.7003461867459502,0.18838614534036469,0.8537021894002105,0.410809948630169,0.3616307669374674,0.945492500386578,0.5222915101366533,0.9447849066797975,0.6704613971966484,0.9139217118605143,0.3959064871581905,0.8365137341589931,0.09874724337194209,0.64620221028779,0.06223864838791093,0.7726640128603797,0.20401507007393416,0.7513170415429825,0.18289833489708496,0.963441583702981,0.8354828474862595,0.9903582068043639,0.784143040249947,0.8991879875639984,0.4954042090819321,0.9580858330858331,0.5676199969813286,0.7433832852535465,0.1354763321947646,0.5927173015709865,0.0744650199745177,0.856840085435251,0.42092566074241267,0.9325085662301932,0.6404779996900204,0.6307880592021067,0.08150273891422949,0.5786970611542016,0.0841608271787205,0.7624330378269515,0.3898326556621272,0.7159187100725071,0.1964697155268144,0.8123818860884188,0.36013261762660204
15,3.7591340986086785,0.4163623264018285,0.9394382074531511,0.5940814801846365,0.8547268333975675,0.08724049446273854,0.9687939403883193,0.7506209975556256,0.7944220462619702,0.19700486607803558,0.954686106891084,0.3637082825396097,0.9190165102345034,0.45513082591923304,0.750055770726351,0.06923531201487093,0.8470469541129365,0.2110984976210574,0.9687115882352786,0.7544408137499168,0.8362501481314666,0.2778826345369225,0.827847728463668,0.341504315013196,0.7937965307598955,0.2510837678591336,0.9782097725787213,0.900820470196396,0.9892301800753697,0.8906969661901629,0.9691164441185699,0.7161053953708779,0.9920945474881883,0.7780444914688113,0.9202999515804073,0.1855833673928979,0.7942850192059072,0.215812953253169,0.7076186421732958,0.14336719210424875,0.9148393674849731,0.34814225813594074,0.8868574135444747,0.5382554204096671,0.9685947970752848,0.802611088096353,0.7023714765643836,0.14907549332188166,0.5700668615104133,0.1099319916551825,0.8006344517348025,0.5005333975151236,0.7302130846404826,0.2278921757494055,0.8607393990319795,0.4176886518613498,0.36714615785943205,0.9337909520576037,0.49387603426721527,0.9305797105074429,0.5879970571680895,0.8970757100206689,0.33175011382679837,0.8019309924997682,0.09225257718723537,0.7465553108706816,0.09570494683843139,0.7507987911554266,0.22413944764911437,0.7226267195649025,0.17048301012388314,0.962534221769364,0.8386971839364978,0.98303903080176,0.8210270197030323,0.8979770105107032,0.5073747037956601,0.9625921574450985,0.6300970372936798,0.7514289908350565,0.12647359170521597,0.6769727471623865,0.10148933135539102,0.861195771967945,0.4372862177810972,0.9191563412291629,0.6190569845166223,0.6731557925940035,0.10115925311717555,0.6090637766606601,0.08318794052515927,0.7817097771145696,0.4257189073709711,0.7473027883986307,0.22921458326894661,0.8215519259560967,0.3640518916542219
16,3.7083497244196204,0.4220019378400537,0.9268834820070427,0.5766175986884817,0.8599451550541769,0.1271490691993527,0.972086659636971,0.8247213394274396,0.776872861144272,0.1929906399886563,0.9591449783932556,0.395930102684272,0.9437191832511553,0.5500137023402186,0.7296077909195994,0.0930030882548557,0.8837382897249194,0.21821300747300976,0.9584047542793073,0.6851591141539689,0.8528237051765688,0.31048553479106655,0.8649995368140733,0.3650804772467638,0.7786935431642084,0.26931458440815814,0.9775925493447125,0.894926864023175,0.9922284041863988,0.900471884355261,0.9767735067667047,0.6989673787856794,0.9923932943448057,0.7536304795177806,0.9366131573568413,0.16233674575797333,0.8549398586191693,0.29710627553269875,0.6347846199619802,0.10583753132229913,0.9134713054821713,0.33443770598112754,0.8771615430680467,0.532138978561443,0.9744516730462004,0.8363684016617091,0.6779942547674735,0.1369909310014056,0.5378735240190504,0.10956709248252627,0.774116445914019,0.47476035402384914,0.7378295872424918,0.22549444402677832,0.8601978332186774,0.42583512791115186,0.35022732354475666,0.910731053435486,0.47175354333966985,0.9259847210077745,0.688457286463019,0.9146400905477194,0.3581377851742198,0.8100518721300755,0.07254570645565847,0.7668928309266207,0.10671484415796009,0.7728246703847177,0.23153941992054528,0.6923046467337234,0.1544137789132106,0.9605462421327214,0.829116019262189,0.9872333077418088,0.8276050214314722,0.9127852293957416,0.469666393252774,0.9786410926116809,0.5778959087197755,0.8136350871818437,0.1792268810005935,0.5924870539232242,0.07879050367176707,0.8522404245074088,0.41935612272735745,0.927478184244476,0.6106258269730137,0.6361724897485291,0.08899909572318566,0.5620571335914475,0.0826129163020875,0.7601936735118897,0.3920256631068497,0.7527121808128553,0.21825102826071047,0.8173479991878811,0.3609333549924242
17,3.6588655800402514,0.4485602842165412,0.9424170288803488,0.5850795320895849,0.8786569089879751,0.13886213963139013,0.9704202455237942,0.8334233874178345,0.8339015839498747,0.2525616150696841,0.9513593512623473,0.3843898728391702,0.9432113485635962,0.6182673566323749,0.5910672600105882,0.08633973861553015,0.8426682902374185,0.2276317086001504,0.9615504519552881,0.711820586099692,0.8473895738579404,0.34612305294818346,0.8642200590757376,0.41153201266856565,0.7743748230433896,0.2961131472196004,0.9817704361762553,0.9194368467924884,0.9961697200094897,0.9210267434209359,0.9652014801449373,0.6801954324941074,0.9909588314084258,0.7805814693710669,0.9244097967765408,0.19253958152971046,0.8018984766700191,0.22315381754032568,0.711399429863791,0.16087425667250244,0.9177206141235275,0.35729102055722217,0.8862314582592596,0.5458925576007829,0.9796426264928799,0.8544473612942085,0.6956582190957191,0.1649305516883657,0.5732423752009975,0.13037819348482796,0.8012768348576461,0.5488502106932571,0.7066908375378452,0.21832849437953744,0.8589810793063705,0.4457719495135039,0.3669970932399195,0.9313389429564525,0.4642475325658984,0.9294810795706101,0.6728727723336789,0.9004846569276834,0.41028109187474826,0.7726727078423048,0.07394916132481523,0.7324266453123504,0.10038665577619317,0.7808592479672326,0.23666991093044296,0.7052909741369858,0.14902721748195166,0.9624169096782775,0.8437179088489919,0.9868394964184289,0.848464917759464,0.8840487243115275,0.46170770291534496,0.961391053302818,0.5902026208655529,0.7607491298835022,0.12915225053716592,0.6544401902673566,0.10729795101343381,0.8507805170970986,0.39356125424961447,0.9227528371840428,0.5999039683939367,0.6634235918070941,0.10458534225453196,0.5969091778661026,0.09765604749004267,0.7665390866973085,0.4306206086720512,0.7205868011005325,0.20660780991698693,0.8149174615961953,0.36425856448446553
18,3.608255048789835,0.46540458622146036,0.9350461232354101,0.6161460377643232,0.8631074670532561,0.15402198730306016,0.973426830377064,0.850226880235033,0.8257537455055657,0.3075734514092896,0.9266638854482592,0.291509889017637,0.9399855066280178,0.5807055429957555,0.7237975361818215,0.1297291946567537,0.8855824814679025,0.24734454367781514,0.97444473004529,0.7663730763021406,0.7900542186903065,0.24756386849961404,0.8598795744493251,0.4366345492562732,0.7949750195611905,0.32378445049388993,0.9715173417228311,0.8607576735846937,0.9938616916682635,0.9113556028008626,0.9647692299890243,0.697059431838095,0.9890648348862218,0.7771443533632669,0.8988134102835355,0.15617624898456875,0.7328170279639128,0.19832016075684808,0.6440922403726806,0.10931692597442559,0.913631939762895,0.3536946768059359,0.8880968053633379,0.566166741028861,0.9658772905550863,0.7694184849804362,0.6631207224003026,0.16526113689516708,0.5030751571255387,0.0995348671862885,0.7716749973154191,0.48378857293766914,0.6803648772013544,0.17752641428194416,0.8489805648174544,0.43373595242425567,0.3774316166057986,0.9172742264357892,0.4832905296686089,0.9221560395399935,0.6886948469416121,0.8989120952740542,0.36358788557246263,0.8080258457889883,0.09097854864898748,0.6814057871357654,0.0596290621575276,0.7569076659159595,0.21126375982148837,0.7284391974844913,0.18106221878002915,0.9542525253110685,0.7886100885519841,0.986458108165187,0.8123564056503814,0.8811695118298892,0.4605516479791198,0.9563482357600005,0.5887042208262812,0.678289104184218,0.10635570924804667,0.5775401271277003,0.06802110526586103,0.8525792956977708,0.41382584348183027,0.9128080858028271,0.555961125395885,0.6447492168656392,0.10636978569944718,0.534555029738483,0.0893722989208294,0.7439515398113278,0.37505517183485615,0.695946978352017,0.17644194666057578,0.7964088745379563,0.34842801058451656
19,3.560418450359392,0.49352811110282974,0.9362095285219234,0.6109305332075711,0.898933261555786,0.1874956824271601,0.9681608288492026,0.8256530890342665,0.8192732334506992,0.28088859639983715,0.9563386859481401,0.42495630632019077,0.9515379421964174,0.6200390426863013,0.7017421758559713,0.11159588107524855,0.899328149865239,0.33325396917592015,0.9688400207986109,0.7836036266966823,0.8486176647069007,0.38229772925093514,0.9123423702953842,0.5121409502423887,0.7909722399221484,0.290743672820453,0.9823106476805965,0.9132432623058017,0.9938261054538154,0.914153637896691,0.9657856967609539,0.676398371836819,0.9888770342078121,0.7124797849400076,0.9162692394194006,0.22989180991668295,0.7452576648860463,0.20734571840739333,0.6887748336486244,0.1719037124155165,0.9085264888091892,0.36702642527100254,0.8791051279427033,0.564201455605362,0.9660801564139087,0.8125729547027544,0.6450759469008516,0.17321102959681697,0.5582073270679313,0.12803022273990275,0.7535394055868729,0.49110274813203525,0.6932745026293706,0.20061689767332214,0.8591233184374809,0.4586837350298871,0.3915927554594917,0.9205552572848746,0.4688739015942444,0.9163260952451737,0.6348586789897267,0.900688579595364,0.4131527633594602,0.8102604830012639,0.10333635463623933,0.7341541398649688,0.08673054200003931,0.8092363250308311,0.23830446964880622,0.7002714452399033,0.13453180256867528,0.960533784680663,0.820362578021619,0.9868146502781525,0.8277388495798166,0.8801510646187197,0.4375903149191834,0.9575733619851265,0.5176164725428571,0.6723324227957758,0.10281868256386106,0.6186722684756912,0.10963916290936532,0.8439658741317204,0.39912154662191957,0.9013835927767898,0.5593547952993198,0.6064927234842563,0.09720008379782953,0.5695935851096713,0.09411043954387874,0.7188569166408436,0.35670321492430607,0.7104884408650062,0.18151814220500592,0.8009658426897261,0.34650330503821863
20,3.5117693464313717,0.4448833569352314,0.9378512919051799,0.6747696445425897,0.8872743660701253,0.21562309540300534,0.9755733399659104,0.8632259638750087,0.8064904172179116,0.2827384937945087,0.9489825170888027,0.4013904822005373,0.9390599803504238,0.6144521615311113,0.7151011945999529,0.15612460799859523,0.8866729874884524,0.28996456565112855,0.9546702866061567,0.7388150292308787,0.8174376941036925,0.39622902636354096,0.8506657460613848,0.3483987018157071,0.7786699073653257,0.34379399872486216,0.9845478751129387,0.9264955935011321,0.9941398230270181,0.9060637961466546,0.9454929854130603,0.5854851428382923,0.9759802265303069,0.6695384923632256,0.888776329888857,0.1753299447707579,0.8081344777027852,0.29793292527831056,0.6796505852438244,0.14553243836491536,0.9108495721539701,0.40883359334723013,0.8682483336071994,0.5764691530851614,0.9715701630046776,0.7781822258999863,0.6818249420626965,0.1787223266096582,0.4807389092146518,0.11708935637774223,0.7434326821172339,0.5167075840351094,0.6688568852085353,0.18170494718784458,0.8500266738119643,0.45344666503605746,0.33971826786912124,0.9213321750399623,0.5065551855682192,0.9228898299543002,0.6790461381009724,0.9023567232416914,0.3893966085958644,0.8016168562463707,0.10383956812990039,0.6940300759296816,0.07517967228229959,0.7427389361409431,0.19743440969091394,0.6845526457916259,0.15007767683084783,0.9598014455309306,0.8253267829211326,0.9799474255671754,0.7954001287154404,0.8412808939089262,0.35892465711592175,0.9122713534478241,0.4743222821698173,0.7451745764298418,0.14587135727751055,0.6222388636819719,0.09078845844146827,0.8235470661576565,0.37586932452575256,0.9060946759941635,0.5364870627844122,0.6447436560555968,0.09687842417645659,0.5152787083843462,0.09078161620542166,0.707654890780132,0.3536779094813969,0.6897483730619878,0.17706223960539494,0.7903841669129015,0.3380483948746918
21,3.454597033807759,0.5015030682467516,0.9492742321827585,0.6796735351760578,0.9029843613510348,0.2392163386246613,0.9732169636521533,0.844906155485331,0.7887545825215552,0.24348975894743619,0.9606523741575584,0.4513192463716271,0.9535122807946538,0.625582639413866,0.7218576219027789,0.15335322189664627,0.930243193946729,0.4222880167004202,0.9622323081180182,0.7637463808389675,0.8364631031993551,0.4467810346192223,0.9056826356060509,0.517447050093321,0.8249954302202891,0.39997390892408735,0.9895934547390745,0.9505891951931601,0.9938304681868367,0.923521860778001,0.9800186854433942,0.7888543410678567,0.9943816544083615,0.8286844025436128,0.9580929173477342,0.29215070184830044,0.8207792793380603,0.27986891154255417,0.6707422705532347,0.1845976796908326,0.8967055537878967,0.3331457274019362,0.8870608034169994,0.6199530608243219,0.9820400458645296,0.9000437100838343,0.6791079548514345,0.21433913255735249,0.5616753289533883,0.14484427647633905,0.7621213254371116,0.5380393505327185,0.6593272340375209,0.20621245428331028,0.8671286947699427,0.4997162343044529,0.38488484758142655,0.9262458777017643,0.4938894787904577,0.9257395881983204,0.6694151117111059,0.9070369971511376,0.39349681798614705,0.8465429152820273,0.14577895493507928,0.6874418631640945,0.08025161380588752,0.7872836045229102,0.23285763964101647,0.7493326809037097,0.19039358520162988,0.9641239340131769,0.8406932669570408,0.9809037535064116,0.8352119526784948,0.8955516693050385,0.4861994314206664,0.9648356743944979,0.6176799870358164,0.7665660395020125,0.11987584176418063,0.5955671515531213,0.09461083169022448,0.8447378300185774,0.42653811492891863,0.9223825055549746,0.6336303248056514,0.63001471499987,0.10142507973875659,0.5758829263805427,0.09084106296166947,0.7259209402009085,0.36935462897139204,0.6804877379629017,0.1848470991483231,0.8092946528587366,0.3687889907459189
22,3.419829497535535,0.5022732354475665,0.9411364621834929,0.6861185728482383,0.9195665387903835,0.2923254410047347,0.9696202605724986,0.8353455827687082,0.7973929892838277,0.27649450124671937,0.9621078528193986,0.48648595253204857,0.9402285548951941,0.6640762964009805,0.7430268902384504,0.18319368078948947,0.9178983563235157,0.4099505090274328,0.9672147451296396,0.790566690895657,0.822281555211754,0.4243597600385181,0.9169426715336532,0.5518279361150953,0.8306303562961853,0.4266802726539571,0.9869585206087094,0.9381051053009947,0.9894546184519084,0.9208869785671622,0.9741096920758514,0.7484226553691014,0.9917480722823615,0.8165246016422593,0.931977841041489,0.3031672226886512,0.8337955342187656,0.3767151567396229,0.701261584142714,0.21237771146676251,0.9001180898125288,0.3781542616880317,0.9024740647589528,0.6041341713234597,0.9739158459252601,0.8492254727449333,0.7086406041359922,0.2383274290436762,0.5868014423844997,0.15669028774452418,0.8068084846095835,0.5818963322497853,0.7456429071455022,0.2310465948328035,0.8754520974950812,0.5147345837585903,0.37936945665946187,0.9175947740415507,0.48570176766339795,0.9209927307044566,0.6139156440157408,0.8967262518754181,0.37060607013731584,0.8296850829807688,0.1322687833641368,0.677210360325073,0.06708132269488429,0.7985971997466423,0.23109070774324733,0.7266291113556594,0.15394636886459867,0.9581587581931159,0.8150678644465013,0.9735207229232974,0.8534702035066922,0.882330217202185,0.4194032839018196,0.9647537809302514,0.6055110300981942,0.7679688630194105,0.17320439959299477,0.6281455621958243,0.10097967772057781,0.8582828704250782,0.38867030573225847,0.9014496290872515,0.5704227179219349,0.667114403249894,0.12690730245421059,0.6012208583720096,0.0925681216607628,0.753548815447307,0.38357012428084036,0.748607312625023,0.19708850177463647,0.8143440686684325,0.35691969460919715
23,3.3635966612452712,0.5144468460410921,0.9354315354946097,0.6900955861488093,0.9114625048561836,0.313644590827616,0.9702487111934145,0.8513100473442614,0.7447247870081173,0.26563219036332186,0.9707465356294384,0.5562025447476031,0.9543824735913582,0.6485631762677643,0.7125315599914833,0.15304645692814497,0.9291332063912576,0.44185894943270065,0.9644097340378962,0.8144715478768888,0.8704098092975028,0.48334706110236847,0.9196371161486147,0.5646329333964537,0.8413322007598463,0.44269543850153914,0.988283744322505,0.9382357117874781,0.9903028421067039,0.9342390392094245,0.9831783363370813,0.8341064122090085,0.9946962613064865,0.8518356254150693,0.9461443630046974,0.35185509132508336,0.803159875080044,0.3365608419734082,0.6978636074766397,0.24168358448813354,0.8801640191217917,0.3186114665365502,0.8695912795828546,0.6400123380620185,0.9762726086976894,0.8888811297045767,0.6685731416766721,0.2238106433066367,0.5029024884372322,0.142200338213136,0.7575493068538007,0.5483256408015014,0.6637190794756516,0.2281268906877525,0.8633404279953681,0.5270763567945095,0.3735559364984721,0.9139411716307125,0.4947557014306982,0.9257917593210323,0.6737903263462969,0.9116887262120855,0.37589340416598305,0.8330931563434785,0.11492064085840781,0.7121882081233445,0.07358037105733742,0.8001002347398443,0.23773902567913266,0.7536325237520929,0.18378495023319166,0.9601221586583921,0.8180727685761905,0.9716848416182788,0.860210566682644,0.8909106304995793,0.49510164237799975,0.9674744637979932,0.5921975461715764,0.7230864883034217,0.12727292735083764,0.6269859624392464,0.09422946610729607,0.8107607579846349,0.3823646335648656,0.9019020570574854,0.6134316928967968,0.6367642852510714,0.12051324134184063,0.5400065327606643,0.08397955550883124,0.7081531128992095,0.35397326656853684,0.6767669627199547,0.1789309118911654,0.8034238965322379,0.36182855993734886
24,3.3177146269654294,0.5132294849817396,0.9540016889706371,0.7145210316946445,0.9183670228254144,0.30775116874130026,0.9832505201731021,0.8908003319529889,0.7329958318850194,0.25403270952796486,0.9669072543651899,0.5337746085507994,0.9614725877364245,0.6670132152071278,0.7059524797388874,0.18168307419657476,0.8774976444754573,0.38176591369349644,0.9505048563316024,0.7618933188097278,0.8680138339196928,0.5309870445780881,0.9028635353809871,0.4913625915338219,0.8105805197872037,0.40774882554199765,0.9889526334774473,0.9434101905558175,0.9942107958537497,0.9457928986696357,0.9815987153798564,0.8000423739353993,0.9962528058006842,0.8655498355402791,0.9284336208393484,0.21031281825411222,0.7983783568393257,0.2989449334743974,0.7019912692546963,0.19912646473838477,0.8803618389804442,0.3599550001845713,0.9109660412484896,0.6815712804993174,0.9819100876022573,0.8927543629050495,0.6901581912515437,0.19847711430428028,0.5090997412690035,0.1542209087494325,0.7669219034585706,0.5677941116980929,0.6698177608136475,0.244569949822117,0.8627485206791801,0.5186867722061316,0.3692330625326079,0.9230857025042891,0.49072533393886025,0.9445871209508866,0.6970772873612293,0.917426024511375,0.40904963051349896,0.7443601867982258,0.08327531928904909,0.6894272923249222,0.07302593040113507,0.7545804408092472,0.20300980954505793,0.6939736212686642,0.15175293969965306,0.9589946267210191,0.812559053652847,0.9834706082583602,0.8653719307345145,0.8844826295297994,0.451104734389982,0.9671377906672024,0.6055830409737128,0.715000893518164,0.10880617094039255,0.6371282795504195,0.08890768069518923,0.8533028184468759,0.4082195752845889,0.9107502887107495,0.6019039046851223,0.639253335154564,0.09813926901006109,0.5215659058495102,0.08058885300535679,0.7126489539254028,0.34935443088818807,0.6755565092239381,0.1770457806132443,0.7961438436170324,0.3555526671379833
25,3.272048970405598,0.5012049390077266,0.9153248121326139,0.6289427929003472,0.9158781563262459,0.35661236815487274,0.9708223385477791,0.8297459296267994,0.7420120120812927,0.288550473988494,0.9408425615021532,0.43415827975305676,0.9249136092934342,0.6350576619839685,0.6598305393292975,0.1600144838117039,0.8855227227629744,0.3526233500769202,0.9390633371443043,0.7362733682054613,0.8417432746800346,0.4925078776532019,0.8989591012407244,0.4861532499140596,0.7834282648609774,0.3144370982975817,0.9907621377115194,0.9574182573106743,0.9894919155420511,0.9177803072684638,0.9751477120535874,0.709887306137757,0.9873601768735545,0.6823626684442518,0.9123626732143112,0.2626563112323403,0.7744106335758967,0.23895348895590235,0.6746940852356175,0.21365635411106648,0.8892393395163333,0.4176992670732119,0.8879186079289912,0.6400702708072106,0.97638798429781,0.8714566012399292,0.6672878633358913,0.19642957022777358,0.4565888981600967,0.14751765324926616,0.7469330113889528,0.5621132852614215,0.6434868325098217,0.19911781248166646,0.8457851000479333,0.4896998495449001,0.36394126853991204,0.8882560641524209,0.45224770301294237,0.9025595295737012,0.5781742572669365,0.8548743140045784,0.35737365048766717,0.7610030035085665,0.07365319225699374,0.6905794389269456,0.07677779355343024,0.7724406478605814,0.17664317108639302,0.6850295319155848,0.11125225265599545,0.9582509256682035,0.8247282255721009,0.9829699585317918,0.8424262509547437,0.8857978935809125,0.4197688926945131,0.9517742128036246,0.47642279824683215,0.7052645239250126,0.09329931655909265,0.5995975050862501,0.08865737948402697,0.8262398280362352,0.3445125654456483,0.9054199433883919,0.585272802628525,0.6156861522671971,0.08729609326730252,0.4654843383299598,0.07301487452591632,0.6910447744079001,0.3488997240668632,0.670994854796646,0.1594816985326814,0.7796456547770791,0.32473171801571604
26,3.2315391851938697,0.5244838637549377,0.9276474439894675,0.6420944091112708,0.8993262938301947,0.4035099045575969,0.9737089308835993,0.8547580182358928,0.7194561929162692,0.2327725851765735,0.9307574451432357,0.3599303729740118,0.9173432081533169,0.6606150510947734,0.6245895834177613,0.15752636330762804,0.8892032380742123,0.4508546302780772,0.9273442279859343,0.6420699549598072,0.848201655233269,0.5133112092216556,0.8751686722245258,0.437922421135162,0.7694483183824828,0.3688973023082653,0.9912650632187341,0.9609428351762388,0.983220672168843,0.8545290867952908,0.9717999613841806,0.7819171792112186,0.9832409757660788,0.7002430313109882,0.9210602587917229,0.291607094586882,0.756381361927656,0.24416369556839793,0.647887777349581,0.2383925184808795,0.8292089977798127,0.3803803441629884,0.8861927112180763,0.6413069614099784,0.976675329027029,0.8911116204992562,0.6605249414966337,0.24010877965200048,0.45829221467500847,0.13233489173443563,0.7295974188111491,0.5386841429468016,0.6011695418270386,0.18864125269605847,0.8345658629106082,0.4926394483304665,0.3690839979130953,0.9081615502306501,0.45400436393019084,0.930031020377826,0.684565808572903,0.8565805174489037,0.3909879627834037,0.7757375187261808,0.13148934514827904,0.7013430588317215,0.08103409138381257,0.7255663238495973,0.1335724229340711,0.6738507526628469,0.14315598885451403,0.9564406900177395,0.8153474436466127,0.9746427746181769,0.7430892755031058,0.8583754046692051,0.4445162880070414,0.9351272733625675,0.5057418253702992,0.6664049934900821,0.08348346030770179,0.5824009221326519,0.06653807551806791,0.8134636888124677,0.36381193468795864,0.8976663296173379,0.5720855005774682,0.6021951571766875,0.09582932482164178,0.49475011216001674,0.06055144779996095,0.6796555927412039,0.3210229775947534,0.6149454209532514,0.12536188299570186,0.770912584309427,0.32716786423355204
27,3.1779137444239676,0.5344463491590271,0.9597824969490126,0.7654868786732877,0.9277188449272866,0.36738028037592246,0.9847315426071671,0.8779572996269043,0.7918134555668437,0.3552233615302546,0.9562364207934226,0.5485808065252048,0.9628959962940854,0.7253262962721847,0.7492166046241459,0.21088420426955196,0.8996831704506181,0.4501468459367928,0.9449318929800649,0.7444264101543911,0.8779805610338882,0.5635158989292928,0.893024001401835,0.5571943356104274,0.8085773306529077,0.4651040590929889,0.9942285603150356,0.9726342544838357,0.99148451543438,0.9269625573149203,0.9788308359220698,0.7888216857864163,0.9930761284215722,0.8138942278158574,0.9485816284489349,0.302234986506838,0.7891069742470268,0.3070611839400137,0.7439429905403441,0.2920507494602165,0.9096213356932461,0.4026628549283594,0.9026476229954062,0.6898849118043229,0.9834724038547142,0.8837367159988123,0.6881646171364683,0.25029108102946235,0.5136965319362883,0.14239380305990326,0.7854706834237947,0.5836438496754441,0.6615817173237022,0.26905870190527426,0.8707884178451639,0.5483291631041107,0.37303421033017814,0.9253249736438637,0.5433128936192511,0.9395904852736285,0.6425475538303503,0.9036267527510099,0.40869634617907363,0.7863297052121,0.09253246850285196,0.6901056400347008,0.07539103359094772,0.7283266680309999,0.2005108002876022,0.703770894329412,0.16675515496363386,0.9595346440151432,0.8226805808558978,0.9787741908233266,0.8488647112517897,0.8591175359032502,0.4348876867567121,0.943799973211738,0.5865751538917915,0.672345612825815,0.09006198771431707,0.6619691251976173,0.09201264392008415,0.8276786740654817,0.3692787475470601,0.9067341187956246,0.5692963678159422,0.6285502639270094,0.09920228631011285,0.5440292867246586,0.07625771699917899,0.7281788061916177,0.3431263844904761,0.6780197205093015,0.16490192273901552,0.7929372142876999,0.3487838126982152
28,3.152287557665237,0.5421977093736802,0.9367100215754635,0.7043709436332717,0.9028646462883311,0.4149892860315509,0.9784783669647494,0.8678411990531104,0.6806661074752952,0.21149084472410962,0.9520589630608662,0.5374723528910087,0.9201231084235272,0.6604626555086379,0.6339279637766881,0.18943809612205795,0.8849442558710712,0.42784661713481775,0.941463686867272,0.7151169616368369,0.8354741269659702,0.5325831573455895,0.8977074668361666,0.5467369540680186,0.7893923072009748,0.4459132896818563,0.9964974645402651,0.9850176561858668,0.9854742661483853,0.8712205218963838,0.9747164638968058,0.7850922747986382,0.9945865009257745,0.831216376231713,0.9441692408931333,0.34967509488356496,0.8295644323002256,0.34471541998801947,0.6656806183048816,0.2772347396263747,0.8095463112295149,0.2843408907828038,0.8977873991948336,0.6862813495725062,0.9815698635801098,0.9099543668344613,0.6496613624277429,0.260318068295899,0.48165278953165785,0.1608978737849895,0.733164230897229,0.5897674899867444,0.6187913393431246,0.2714547404630847,0.8429489732507716,0.5331326623523813,0.3683386748155325,0.9044012586916023,0.49187137888327603,0.9357387556043756,0.6672647251170716,0.8519454395495796,0.34636301204092945,0.7755289078549923,0.0903131852901199,0.67109072392873,0.07645317784702535,0.7532675941863851,0.19717694221937543,0.6694660567397198,0.1466145663527576,0.9597204102470442,0.8293458217000904,0.9784417494664291,0.8008968308456926,0.8562901995179624,0.44249280838672433,0.9571158504982035,0.5937225955246901,0.7376568975347408,0.11349365149066776,0.5803802899855937,0.08224673612138829,0.8266384669243872,0.39990714381099013,0.8994261708766136,0.5864384508787365,0.5989141226091258,0.09566120001129096,0.5222658584129367,0.08355806408636121,0.6667748761093397,0.3470533186142958,0.6197921412340597,0.15395300241397722,0.77709767210378,0.3444645585071295
29,3.1077107737894867,0.5766564805843333,0.9470029775538251,0.7454971447281177,0.9432283657503702,0.5127292249729503,0.9826946377494663,0.8884090267878769,0.7674138615515244,0.3204405526280678,0.9720263268165448,0.6843002061248458,0.9569005755443919,0.7498410174100937,0.7421170619183715,0.24635570499402676,0.9452581024130821,0.5780712859779417,0.9583656756531992,0.7894727869279778,0.839065039599318,0.5715014715031892,0.9283654782506305,0.6362996368123341,0.8597923162752791,0.5606804318408554,0.9962902779140588,0.9818922195734664,0.9844861784055552,0.8883773067083334,0.9804995223326998,0.8109769030288663,0.990618526055195,0.7928411890001276,0.9470744164499318,0.34335741687268373,0.8309207067736593,0.41911312379658733,0.7110197513288807,0.28499731863013134,0.9094596331658629,0.43034613299718305,0.9027731469414583,0.7018619251134021,0.9903627688635478,0.9457062613879038,0.6832279557510155,0.298441752591377,0.5382605571001157,0.186343244519539,0.7640244249671404,0.6183945200897575,0.6522885982077291,0.28212167305325025,0.8739821878204943,0.5872449799258033,0.39420138630096146,0.9169313485473792,0.495749542957259,0.9465778423524459,0.6886533166430138,0.8997926606004538,0.42171849064762285,0.8377660093594306,0.14228385465904586,0.6455302456616792,0.051521895650410536,0.7565972882176543,0.18745727022958575,0.735305613195863,0.20581257990189517,0.95830803557608,0.8110727038779622,0.971080831948161,0.8119548564512876,0.8637863845747943,0.4297379987158311,0.9483991101638161,0.571696185913379,0.700049356241437,0.11703396501412343,0.6304174477547896,0.07929542635812994,0.8289481849832353,0.364244817408781,0.908819070018564,0.6148209149656357,0.6309971769882089,0.10983428529033668,0.567864898143893,0.08399178946109989,0.7023539071084451,0.35728419331747047,0.66160059820774,0.16366727234236575,0.7953224215602143,0.353043755779223
