epoch,train_loss,train_accuracy,train_1st degree av block_rocauc,train_1st degree av block_prauc,train_anterior myocardial infarction_rocauc,train_anterior myocardial infarction_prauc,train_atrial fibrillation_rocauc,train_atrial fibrillation_prauc,train_bundle branch block_rocauc,train_bundle branch block_prauc,train_early repolarization_rocauc,train_early repolarization_prauc,train_incomplete right bundle branch block_rocauc,train_incomplete right bundle branch block_prauc,train_left anterior fascicular block_rocauc,train_left anterior fascicular block_prauc,train_left atrial enlargement_rocauc,train_left atrial enlargement_prauc,train_left axis deviation_rocauc,train_left axis deviation_prauc,train_left bundle branch block_rocauc,train_left bundle branch block_prauc,train_left ventricular hypertrophy_rocauc,train_left ventricular hypertrophy_prauc,train_low qrs voltages_rocauc,train_low qrs voltages_prauc,train_nonspecific intraventricular conduction disorder_rocauc,train_nonspecific intraventricular conduction disorder_prauc,train_nonspecific st t abnormality_rocauc,train_nonspecific st t abnormality_prauc,train_normal ecg_rocauc,train_normal ecg_prauc,train_prolonged pr interval_rocauc,train_prolonged pr interval_prauc,train_prolonged qt interval_rocauc,train_prolonged qt interval_prauc,train_qwave abnormal_rocauc,train_qwave abnormal_prauc,train_right axis deviation_rocauc,train_right axis deviation_prauc,train_s t changes_rocauc,train_s t changes_prauc,train_sinus bradycardia_rocauc,train_sinus bradycardia_prauc,train_sinus tachycardia_rocauc,train_sinus tachycardia_prauc,train_st depression_rocauc,train_st depression_prauc,train_st interval abnormal_rocauc,train_st interval abnormal_prauc,train_t wave abnormal_rocauc,train_t wave abnormal_prauc,train_t wave inversion_rocauc,train_t wave inversion_prauc,train_mean_rocaucs,train_mean_praucs,valid_accuracy,valid_1st degree av block_rocauc,valid_1st degree av block_prauc,valid_atrial fibrillation_rocauc,valid_atrial fibrillation_prauc,valid_incomplete right bundle branch block_rocauc,valid_incomplete right bundle branch block_prauc,valid_left anterior fascicular block_rocauc,valid_left anterior fascicular block_prauc,valid_left axis deviation_rocauc,valid_left axis deviation_prauc,valid_left ventricular hypertrophy_rocauc,valid_left ventricular hypertrophy_prauc,valid_low qrs voltages_rocauc,valid_low qrs voltages_prauc,valid_nonspecific intraventricular conduction disorder_rocauc,valid_nonspecific intraventricular conduction disorder_prauc,valid_normal ecg_rocauc,valid_normal ecg_prauc,valid_qwave abnormal_rocauc,valid_qwave abnormal_prauc,valid_s t changes_rocauc,valid_s t changes_prauc,valid_sinus bradycardia_rocauc,valid_sinus bradycardia_prauc,valid_sinus tachycardia_rocauc,valid_sinus tachycardia_prauc,valid_st depression_rocauc,valid_st depression_prauc,valid_t wave abnormal_rocauc,valid_t wave abnormal_prauc,valid_t wave inversion_rocauc,valid_t wave inversion_prauc,valid_mean_rocaucs,valid_mean_praucs
0,4.682303023413953,0.4828163553048995,0.6231973161206252,0.062178195180335266,0.668409457499704,0.015577091943708415,0.7803426734037967,0.1143810886429554,0.7658406062146031,0.15026327411237034,0.4820320218883794,0.005538572331285264,0.6935639569504759,0.06268494542681956,0.8664408186868486,0.1788869652128896,0.7621732364803959,0.021918433021759075,0.833119336722877,0.3704296907666583,0.9352470765086071,0.35948460064527066,0.7611827104527068,0.16662910124144828,0.44941503137159206,0.015387072287893842,0.5692234222613342,0.028966141237473656,0.5581501835677101,0.007366432572037362,0.9400268297085762,0.7892492665289719,0.5275729444396663,0.008165966078358483,0.40905577308836355,0.006083182898740645,0.4658074227516515,0.023533956514553818,0.5789234989833753,0.019392936677132797,0.7763456596499494,0.30434549847408576,0.9622468091748727,0.9006846509729196,0.9513391368888365,0.8019388616241558,0.5837861640699689,0.05011544680179254,0.3241215006550498,0.009447365874484866,0.6739955314514203,0.2743956819905432,0.664959781415582,0.08492843912922435,0.6771738038618066,0.18584510993030265,0.49361177196228745,0.6265388149139901,0.07258791748833257,0.7790667961211313,0.11396937969529983,0.7174096817243614,0.058379345481344325,0.8809239039018071,0.20463865709587353,0.8260173875111609,0.3564388601603942,0.7623186641451388,0.15523476258539706,0.4388750634733454,0.016366987859531286,0.5866999573604659,0.028942637309546305,0.935557967709586,0.7830892681330303,0.4862496614606843,0.02342149271635772,0.7742104266507962,0.3157166064388786,0.9640740326427366,0.9007093714133579,0.951389920724252,0.8165355047551875,0.5919421892429313,0.052207646167063686,0.6876666232179428,0.27321602000822987,0.6646044013427825,0.0872727868130975,0.7295965932589445,0.26617045275755763
1,4.250027280396712,0.5335741980965809,0.7078201976865769,0.1259110201296327,0.6724366361578075,0.015566959762165732,0.8160911550455056,0.1761192306057336,0.7503666366267192,0.13744252477450153,0.3584278423788976,0.004330263998225843,0.7746867941317038,0.12908577615028266,0.9094950920710524,0.25233634403482275,0.816692711246214,0.03295827179992471,0.9221770546428613,0.6376977939006908,0.9262069105115075,0.22146587354790692,0.788680718183688,0.23269442058225592,0.5300273937343727,0.026979010517141782,0.693683295837653,0.05655304978790165,0.6459943315010215,0.012878853245108495,0.9529309034452607,0.7983828894500478,0.6151682237464522,0.012636590932850815,0.4875705452934491,0.007589977262297357,0.6083062506411668,0.045425495849712616,0.773218913208149,0.04538486412518493,0.8368037578108445,0.4228225278423412,0.9738795878539986,0.9283237422656447,0.9511315466673056,0.8555673042662026,0.7085267728849297,0.09287847040564048,0.3562203565342448,0.010059961038047467,0.7278690804786345,0.38273619070865766,0.7516733599049076,0.156686401231764,0.73292638723942,0.22386591570056485,0.558727641201868,0.7071117085717229,0.14510663377213143,0.8176794691572751,0.18116210245634018,0.7919039322797096,0.1375430245756125,0.9176949872122067,0.315956304892974,0.9175169046155728,0.602597076453401,0.7911303750275677,0.22500057076630434,0.5462421681235811,0.037733043847228684,0.7038202817149914,0.05027307005621323,0.9484128219051845,0.791265718876798,0.6262539230732466,0.03911118585390501,0.8274076595816019,0.4064339921069973,0.9730293510314099,0.9127325215664116,0.9511315030483265,0.849409443048675,0.7150723119452932,0.10904123131387533,0.7362782782027755,0.368283368659429,0.7506661693397986,0.1567800184782123,0.7950844903018914,0.3330268316702818
2,4.068387724988792,0.542180707319939,0.793857285683214,0.23169723836060077,0.6723228753551558,0.015158890077208009,0.8668800595655648,0.22322478458603406,0.8303716286557921,0.21256254787398488,0.4822073175194296,0.005778192173714344,0.8266304712982386,0.23742703480539834,0.9472741532589947,0.50109344732403,0.8160264634860478,0.031174810079915086,0.9245958068753307,0.6413035588878192,0.9688312412469031,0.5194050391810376,0.7828342740173035,0.2842800021836177,0.5245558546377141,0.025983365699569,0.7046501656653712,0.10013221791468152,0.5882496083155007,0.010281841883496345,0.9630719074624585,0.8406923555454159,0.6359209705857056,0.02221848372536793,0.43783429044711475,0.008449680270273135,0.5629452867182521,0.035569020115189864,0.7987147420563729,0.06054515572598475,0.7841419123808542,0.34342039720201833,0.9744037216045934,0.9420690273883578,0.951363079753409,0.8387750351764242,0.5979779109867946,0.06620628579766752,0.3568007281888119,0.010227919430215426,0.6940375910121747,0.34715385407824384,0.6857995745977171,0.10853846006134524,0.7373961123605699,0.2562834094441389,0.575821658295885,0.7939816082109881,0.26169927400009046,0.8635349407924519,0.21133373860997895,0.8300155483177921,0.21307995880236746,0.9506077432231043,0.5431777030106123,0.9170278777985585,0.6002730806091829,0.7830369686088133,0.2465085027319044,0.5494731187759401,0.03050878720085066,0.7032253499382463,0.0758220543837849,0.9568646358674644,0.8213146177835483,0.5553090266530012,0.030037661779625094,0.7713163467554073,0.3352308882519761,0.9740539291727521,0.9391276789728467,0.9505076525607618,0.8287329157099455,0.6025541490857947,0.06902477805987765,0.6952107003883821,0.33143908439817227,0.6763195822454309,0.10906790207942231,0.7858149486496806,0.3528986641490116
3,3.9489349746603253,0.5178298672306427,0.8972063528569689,0.32802701345839463,0.7150668784035752,0.019845984735697333,0.9375865269349722,0.47077557230773254,0.8685903533216583,0.2883461732616285,0.38738244425866347,0.0045726654653521995,0.8638620778999713,0.3255692353805896,0.9553441025816365,0.5586182813466405,0.8414573230778002,0.035259765460534456,0.906518817185793,0.5780447519145435,0.9741139393032048,0.4130012227950852,0.8542431999047622,0.359123460356658,0.5727592533243525,0.030677082468529786,0.7040692849074386,0.10244590933616987,0.6235256385789333,0.009536445538728924,0.9703579374715356,0.8718489021575124,0.7449022211232477,0.08434606095245475,0.5458550598620325,0.009203180990445127,0.5603772337097535,0.03170633888143893,0.7439598283698122,0.045734052374470896,0.8192940093821568,0.38182247389353485,0.9444849058554338,0.8944525725259909,0.9401796033185172,0.8290491474166028,0.611474751240547,0.06085276567767159,0.3965963575783843,0.011086638567830808,0.7103852873597517,0.34165962141001804,0.7388067423511321,0.12147047245089737,0.7626307742370014,0.27719522273558284,0.5469204335183717,0.8934119126539086,0.336849096649816,0.934421981844607,0.49246388727297974,0.866892381896437,0.31178413900257074,0.9551348170286891,0.6061886563159965,0.8976472267470692,0.540997191555495,0.8439336850408098,0.30905334258590117,0.5753454838452468,0.0335482790999242,0.7092424866200082,0.08359097177624045,0.9663009463672254,0.8565595297452238,0.5587783908363382,0.030246034538482368,0.8054525444432675,0.3612902435351583,0.9473302384993489,0.8960954226284329,0.936283955385883,0.8132414328192992,0.6128798680828362,0.061318734750911014,0.7077668080837749,0.3179004356638611,0.7178619917941066,0.11900039008788596,0.8080427949480973,0.38563298675176116
4,3.864342182226879,0.6130301962166608,0.7806266719782345,0.23838471472708525,0.6964985488561029,0.017466350188217603,0.8964460820191685,0.36936172892715086,0.8563485491146835,0.26308061659402643,0.3782524341533031,0.004900462496800683,0.907206179112796,0.43711136726658717,0.9661039359067937,0.6225639895703023,0.8106016791351666,0.031194758303555115,0.8998497756445829,0.5477027615210552,0.969255094507667,0.5465699511048657,0.7972896989480981,0.2608166585040895,0.5796286312576048,0.03388772869246054,0.7243488556502157,0.15874411127779717,0.6653328051384109,0.016109573223979524,0.9638762706254775,0.8184117852785482,0.713800313924486,0.07147488806042962,0.5294207512540622,0.009721647394550847,0.6187064618948106,0.048307608677065184,0.7542676812980904,0.08095180018642859,0.8026487112711735,0.3733438022450124,0.9625005408644258,0.9149208705731229,0.9532833050516908,0.8585032218682139,0.605016579085734,0.06636508907517885,0.38079780632196925,0.011031229826692714,0.7369697160718548,0.39861765485287426,0.7206036163271953,0.12704040227055363,0.7565261805928384,0.2817917220271786,0.6063970393867301,0.7796592667676688,0.24855519171432555,0.8895269948297634,0.3384078328098203,0.9072847516345759,0.3995221069084903,0.9639513896099009,0.6399840559524618,0.8880372203199063,0.5017304255097426,0.7944500389796922,0.24543868968672322,0.5774958139066427,0.03575364961948911,0.7287081691466211,0.15630944509457306,0.9603286149187493,0.8129318042773062,0.6181913769389673,0.044131329189561114,0.7886402482376242,0.37115083905008656,0.9632253131448567,0.9125163366023845,0.9506564717070612,0.8477078850801961,0.606988602745041,0.06404619789890945,0.7341793538546197,0.37430299119905835,0.712229093621783,0.1282033103540612,0.8039720450227171,0.38254325568419933
5,3.775364868678157,0.6041593232287628,0.8829597681047554,0.39390456429762344,0.6842992057091274,0.01734533217700133,0.9449931164442745,0.6107913798067766,0.8861088217400187,0.3203955575977756,0.42669222562820713,0.005284728144744298,0.9245767409926008,0.4590762092435837,0.9591853640697681,0.5919343264992609,0.7978203154300152,0.040843915509909,0.911843286543164,0.6386162318730402,0.9696237987227878,0.6166117680922535,0.8103096172192036,0.34108868986468754,0.6259447673203946,0.049856414740893085,0.7442185614862654,0.20789785668694793,0.74154724202917,0.03375881630166841,0.9663431473918541,0.8336875805468682,0.796266502537198,0.09025315786291732,0.614684977945567,0.016344988163707257,0.6483932396816816,0.06606333632387125,0.7908766644739464,0.06721401246164639,0.8367812167544966,0.45363354274172274,0.9646797209641772,0.9322106796183847,0.9632471779107037,0.8877076361467751,0.6621557955659205,0.10818134525979035,0.4435092815138053,0.012929156944797295,0.7688661748030556,0.42354080173253167,0.8025196594626988,0.20189788409409132,0.7910940919401869,0.3238873043358949,0.6036655211912944,0.8742598971729332,0.4130204544898729,0.9422077148507303,0.5700125181077474,0.9158384720023002,0.42424325460303697,0.9605865745625151,0.6191950138887199,0.9027674160009378,0.5964941606156771,0.8025350071716735,0.30392721991953,0.6237984128516214,0.04777365017558479,0.742613068282068,0.19148557810265324,0.9593820609726192,0.8098583164379441,0.6431394011969688,0.05022401045480594,0.8233501563296556,0.42979155040087647,0.9667469188774704,0.932829706767022,0.956427147430533,0.8711447143904123,0.6643437606091469,0.11486867908389876,0.7684989365156335,0.3940294301558174,0.7878716150690043,0.18687965736343012,0.8333979099934882,0.43473611968481435
6,3.7079961058424247,0.5851251321818822,0.8530384512135434,0.31109660164755065,0.7023835894030426,0.022718163037332224,0.9496857168680203,0.6153444540101594,0.8574400725909774,0.27228905819146426,0.3546066650340458,0.00459385471561465,0.9114547800083852,0.46944754575071385,0.9556475869659042,0.6006194203519332,0.8258826096778368,0.037208608076262556,0.8494338289220061,0.4559780911767545,0.9710100104683889,0.63542224066395,0.8147566104095335,0.28045149131953817,0.6240672195276042,0.04683088343578687,0.7665985311753427,0.19987349855497352,0.6957818702607543,0.018565409088487465,0.9745795142549514,0.8821744388953845,0.7109560451965252,0.08577621118915867,0.5679941334932956,0.010578193340569598,0.6302074268147757,0.06073218404256053,0.8179636357293785,0.13721117138911695,0.8133596930845051,0.3993878330156908,0.9715820580064958,0.9325285410508463,0.9441819968826147,0.8480678919740359,0.6040355443171,0.05950649600347938,0.41611234719609136,0.012917284342148687,0.7342524394246838,0.4082684155482567,0.765210173923505,0.19006156895119095,0.7723931750326657,0.30760190576011387,0.5732663670808,0.8487493529266685,0.3312412264864752,0.9389450453884826,0.5529636449153645,0.906734052246353,0.4274737043836374,0.9575148745091514,0.6061264584789754,0.837481477557495,0.42141115866957435,0.8044064911755809,0.23744243646233412,0.6211470105628041,0.04820777973641044,0.7603452331941423,0.16900015819655298,0.9668232135694388,0.8453617997185191,0.6426559869682277,0.060837322105528974,0.7978317118687852,0.39098045180657875,0.9708907769410096,0.9236603887276634,0.9390163250141265,0.837495355303358,0.6003026334933799,0.05815463544805263,0.7331288421667526,0.36883816694672544,0.7574376725102573,0.17898355140537242,0.817713168755791,0.4036361399244452
7,3.6548027662815743,0.5921454588180002,0.8654735049411656,0.3270732661920781,0.7819284028353263,0.026373511948338337,0.9703740999178854,0.5992225949298919,0.8707693105473328,0.26560818756832294,0.46853672130316926,0.008545097297193611,0.9317253213804398,0.5125826475656857,0.9724220055786221,0.6432486245943554,0.8856926432561537,0.08078079186449111,0.9335224179160462,0.6855663172503581,0.9884130480197711,0.7547625443985786,0.8692723521134454,0.4316922237832121,0.6438585240643677,0.07069314728058557,0.8137150033263661,0.2710908521703482,0.770314346758056,0.026638702388142015,0.9743474705117422,0.8737799778068971,0.7894784902597403,0.09593266785833382,0.6036617237953987,0.014514212783026057,0.7017689863167808,0.08903871069661774,0.8549691773312602,0.12813139593641987,0.8549181185774662,0.46182578479463293,0.971417609652245,0.9447585485729069,0.9384743850280903,0.8362608457455358,0.7230215888884274,0.1260026482059463,0.5075482791398656,0.021464913540726754,0.769755908331344,0.4445072426019168,0.8107418229830509,0.22161285991881674,0.8179277408759061,0.3446810891420523,0.5908009516256939,0.8482802078223374,0.31555313524953965,0.9619037549736723,0.5078217547324878,0.9259699103575827,0.4485009605376877,0.9715304411142632,0.6237260783540973,0.9199563979700563,0.6299073651098417,0.8559665144945797,0.3765654408430517,0.6355610204415646,0.048308523472015946,0.8070511453861083,0.22394573969351708,0.9680714171014465,0.8591858739950949,0.6932641297017136,0.06797811163768736,0.8391867733604818,0.42946716989700057,0.9717361935210835,0.9435409983620142,0.9318257220546845,0.8152269046073981,0.7233379892332316,0.12139330167323455,0.7646642884110693,0.3967269738882553,0.7970525923162998,0.21008469691452686,0.8509599061412609,0.4386208143104657
8,3.600527457800977,0.6426389378451416,0.8667252676494633,0.3599119673478649,0.7124582414614656,0.01919385470178954,0.9361167691281219,0.6334057631815936,0.8613528473683958,0.28588326434114564,0.45246202045279904,0.007848103347455362,0.9215057538558649,0.49421188195491217,0.9553189546797644,0.5908598230719441,0.8480455599200787,0.04563900068089835,0.8882615474258406,0.5787707105061612,0.9768948413872964,0.6472899731323007,0.8175741595443579,0.32795379725990387,0.620884776671703,0.06391774357385477,0.8172671053939369,0.2737306024599233,0.7548869863044927,0.0323807574472218,0.9764901335556969,0.8847693842217925,0.7649457485808893,0.0976978373395374,0.5929695475470462,0.014721542827269262,0.7144481672139877,0.10141201993789485,0.7893565362994857,0.11708659826044249,0.8441145791314244,0.45692538170714314,0.9662736024153691,0.9370529895195692,0.9282204385481078,0.8255812761782044,0.6683206467334919,0.09204677818773281,0.5122573730040683,0.017896975902913274,0.7711342392277394,0.433948148690256,0.8332094938678782,0.2511732406328587,0.7996728975911064,0.33043497755433016,0.6296590007930214,0.8543189265222824,0.3497751677655342,0.9122733554120702,0.5420447978989162,0.9113012811985508,0.42169200367064574,0.9559953464310924,0.6032913677974222,0.8731937604036736,0.5320116868420941,0.8036509012190043,0.276729245676993,0.6108318050770283,0.049427901550114006,0.8082176674704464,0.23787009732865433,0.9682993359735313,0.8556596953109961,0.708382565358002,0.06797372867610414,0.8259079922059971,0.4181312594743538,0.9680569386523868,0.9368110096722686,0.9219193849581028,0.8060408841311425,0.6717414035598235,0.08860672276263616,0.7702729933330755,0.3959498017512374,0.8280963819470347,0.24324990180528877,0.8370287524826314,0.42657907950715007
9,3.559560689084637,0.5904711549759135,0.8763076110010802,0.3424587514367774,0.707591383220374,0.01956678694590269,0.9388630604033282,0.538099728195409,0.8811561033192342,0.28502874524029675,0.49161198794112426,0.02574976531656952,0.9315053211704978,0.4977289777663777,0.9630645951732876,0.5650719715911735,0.8229161594827491,0.037553899221188645,0.8915139685792256,0.5513192912694669,0.9785239533616285,0.6231310636300734,0.8117382860205987,0.28983218680482736,0.6513927150466647,0.06954296321662118,0.8013158916148729,0.2742225342748914,0.6969700482996132,0.019490766680890316,0.9765439071376258,0.8854645291738268,0.777705314139503,0.08703388805639257,0.5855472608751882,0.014167627924085331,0.6834612797227624,0.09461408715394248,0.8598865018139776,0.2359181836266448,0.8358844527487612,0.4529509918328316,0.9689248741206041,0.9362113267026186,0.9587880598206907,0.884661875451362,0.6243666014804728,0.07259236812071171,0.48116741078024805,0.02624073249623421,0.757867525065648,0.43454048522294564,0.7916560208694042,0.21121403396397662,0.7979334728157371,0.32593875235830916,0.5826063970393868,0.8511018540853025,0.32269137046940194,0.9264684246265279,0.45199728087859337,0.9222201481595912,0.4261404156411937,0.9604629131323225,0.5453685092837441,0.8774949401011636,0.5036456062960212,0.7988592172799155,0.2295239685307182,0.6367117239990095,0.05917336930237352,0.7674671381520908,0.20283497215258878,0.9665644618534045,0.8449017444205832,0.667107818797827,0.07080661481562056,0.8082221283236721,0.4161641399969348,0.9708668959760814,0.93841607453474,0.9522319505704369,0.8692616210162841,0.6169143993404141,0.06521420282050593,0.743080125457158,0.37635790688438325,0.7682348377471093,0.2089433327919279,0.8271255611001267,0.40821507061472595
10,3.5199295779174316,0.635324873692868,0.8141055769024712,0.3235301481942262,0.7371244506185627,0.023945900653688835,0.9669808489394889,0.6730160728846785,0.861705805583173,0.29341925755637904,0.5275870707684859,0.014813798848824118,0.9393104824010255,0.5508667592159776,0.9737156235614286,0.668673852979152,0.8683067623791259,0.060200732683751895,0.9259609954052099,0.6513365804362985,0.9858156196304632,0.6987626110849567,0.8229970247532814,0.3653448398053791,0.6265643228365803,0.0711342529042616,0.7776227508939837,0.23795842202126252,0.7261049007100799,0.0209688230348527,0.9697617962891935,0.8516829079700776,0.7834379300335427,0.09622169008450404,0.568227417939073,0.01758960167641944,0.6489841937263057,0.09581039622774903,0.8823644001913646,0.22513466270958,0.8276220879762747,0.4492861280193339,0.9739523455468373,0.9507931550563598,0.9345959055526102,0.841476014580827,0.6034861950139935,0.07353275199036388,0.477727352761552,0.02373111670585598,0.7032302272320363,0.40668780984838326,0.6740238586350225,0.1511072253285234,0.7923583056261987,0.3398855966346795,0.6053396775046259,0.8027278714471948,0.30533786913837246,0.9509426151390246,0.603090282863366,0.9229567979905909,0.4760471274802821,0.9727550406484529,0.6403573373448946,0.9117688775224081,0.5725897045468763,0.8099909588086731,0.2869619441012325,0.6184444099391915,0.047247317161057595,0.7454019143680527,0.14750107235921567,0.959300622047839,0.8148215022218669,0.6464843023965928,0.07358031972206097,0.7997232511691386,0.39896980376631663,0.9749668817300753,0.9465146612240858,0.9268246628631802,0.8269699256942369,0.5944976962995295,0.06711289757221253,0.6937172938813414,0.3478808506836938,0.6611039910481165,0.14088509357423004,0.8119754492062126,0.418491731840875
11,3.471112002722456,0.6552990247914464,0.9108035446636357,0.3863938110112655,0.7814582146398129,0.031090086373261647,0.9633568540159865,0.7189371315221995,0.8527349156877668,0.2733740072242711,0.5509529720737382,0.007707679314665248,0.9505107790410428,0.5654416179046221,0.9765308506531765,0.7141642345102656,0.8732173444837033,0.05453690454539649,0.9099142230910512,0.6215666980839453,0.9899701301464009,0.8198476738373756,0.8502902064058999,0.3986942902557645,0.6893362336456564,0.11059485562017524,0.8637711380235217,0.347757281158103,0.7210339428635,0.02437324978599445,0.9784655649232517,0.8959082771352916,0.8338635960479918,0.16236975144545376,0.6289017360127016,0.017092723653302343,0.742125103307095,0.1434997586301355,0.9021234750627917,0.28596464138086997,0.8742608512785097,0.5026221081658144,0.9728932836725597,0.9482866219836326,0.9343706721151404,0.8356658317684091,0.6355715802603463,0.07864848919793281,0.5598000128054846,0.02416589991990508,0.8056792641441872,0.4830581866883894,0.8053860157277043,0.2234156878945085,0.8291277886458717,0.37212221150042113,0.6276323905189884,0.8895430239396808,0.358719503193726,0.942169295465917,0.6504734154518156,0.9335341598115322,0.47819683629128307,0.9722670823927432,0.6574814817222069,0.8920751250484571,0.5372974620724006,0.831078988684256,0.31068935970390615,0.6659598218969401,0.06177112520403524,0.8254045242016115,0.2537806205688087,0.96712266080932,0.8472870386591251,0.7220293506948686,0.09743554271300081,0.8445994447877796,0.41540088426463695,0.9739009084675426,0.9473395914955581,0.9265102325101492,0.8164720248267487,0.6360364712158688,0.07564528881738602,0.7887111612797819,0.40235410986014686,0.796166728832525,0.20940471310189893,0.8504443112524358,0.44498431237166775
12,3.4268106735210666,0.5640641522735284,0.8583103655224671,0.3580173466716208,0.6890214351248964,0.01994859363536064,0.8968038757917185,0.3729694395023694,0.7575482660701038,0.17059983457718558,0.5835120068007105,0.01724949345756891,0.9234447365873296,0.4912297384998191,0.9557633788076773,0.5285231185222387,0.8234541582501552,0.0367902359999645,0.918672249997177,0.6537722691424442,0.9780635122991156,0.6000254747244548,0.7914702546970813,0.3368621066767189,0.6500652826201045,0.09118008186424623,0.8289169503932512,0.3131428433086107,0.679919608767532,0.022276864042499553,0.9748845160833409,0.8975081644768177,0.7584547282188011,0.09991267249004823,0.6356733137232782,0.02572124675407061,0.6482993339646066,0.09255653350473575,0.8623216670653431,0.24102121960246425,0.7861414993163999,0.36808489196011773,0.9812148335305291,0.9613301230200769,0.9525487618212801,0.8725526374093373,0.6156519244110307,0.06912162169048326,0.5515932054590766,0.04035879937911617,0.7327600822093578,0.41936162876176875,0.7283877393777263,0.1805633021942666,0.7908806802657727,0.3184877031487848,0.544717596263988,0.8392165737500982,0.337589957583847,0.8807670772676373,0.2972625411620927,0.9001810871235042,0.36530627884420697,0.9557267143600052,0.489815650941499,0.9020254146795355,0.5810394788118071,0.7744366951119565,0.24966583186900934,0.6352068286828179,0.05379827092843556,0.7901726901135094,0.22754801327235813,0.9599760480509764,0.8431326684991752,0.6253252632641032,0.06163022769367627,0.7535431356307404,0.3141055432989943,0.9811270407360152,0.9562367288084834,0.9434935032340178,0.8505399608868396,0.6104033173286775,0.06458068260327314,0.7204837838764127,0.353231851153171,0.7155552405818724,0.1715876738599848,0.8117275258619925,0.3885669600135534
13,3.393178577219161,0.5731112677711198,0.8401536731128728,0.3288620982080938,0.6999398131363205,0.02745490339402465,0.9355152778235278,0.5979073262187738,0.761439251965099,0.2061192313071501,0.5921548343874998,0.018402697077794964,0.9190589418783585,0.5241523694495501,0.9604225541249745,0.614450814038001,0.8208370344051638,0.03784572028810121,0.8947518924523329,0.5607159253839075,0.9712493206622926,0.5512128680120915,0.8449564844389428,0.39380927699667023,0.6687957902816591,0.08698240296916156,0.7871140308811568,0.29107087826790495,0.6545975820361966,0.02650677003376787,0.9760819287413705,0.8743998653766829,0.7188683936097016,0.13529321382853654,0.6333786620952674,0.020591614163712052,0.6311932027101327,0.1039036085067202,0.8691895905593429,0.2423947512556537,0.8510019932511292,0.46593582822938373,0.9685199391947054,0.9399779705795007,0.911955699123708,0.7969333620895798,0.6116825568566905,0.07309593952652349,0.546647364040229,0.043512918644781934,0.7640625783301502,0.4464704107169723,0.7484688889234589,0.16304361131389075,0.7916168184239338,0.3296556298414204,0.5367873821482069,0.8100051765866508,0.30066762730636143,0.9184690024064235,0.49686808252987247,0.8952641283000841,0.3905457974108255,0.9550146693513251,0.5667139429115945,0.8762748255501879,0.47994598091747914,0.8256491945671584,0.29529626201546477,0.6507811942641079,0.04293862428051183,0.7383630829853556,0.17390745620109865,0.9608268238848063,0.8135019041474469,0.5988760494718787,0.06904907697185556,0.8124593744832511,0.38112592076721896,0.9692914041824849,0.9381405097644543,0.8991255133321132,0.7718621539952527,0.5962714001648964,0.0625217775715481,0.7426349939692529,0.3638979740766752,0.7270630361805296,0.15035051493039314,0.8110231168550317,0.39358335036237835
14,3.3507241744466234,0.6733932557866291,0.8698790233503817,0.36636247496817076,0.7446965962397893,0.02917593421033153,0.9597631495508294,0.6662737024247644,0.8678402284223841,0.3427608477693016,0.4842036891602418,0.008901152027065406,0.9530264256644528,0.6514168441195749,0.9750300164365695,0.682430153782735,0.8441094289054258,0.06966911424419937,0.9238215987495693,0.6890547133517495,0.9699207786250853,0.5228510533270927,0.8404768921567471,0.3791589908433012,0.7147612261662811,0.1482699088426712,0.8336070542179557,0.3838652594157761,0.6847476811899862,0.019710574465409865,0.9793308725747545,0.895987321032389,0.7644410639029844,0.11945168322307939,0.6621791375794881,0.027955157286473763,0.7020002926313945,0.1297022866799322,0.8884180271498624,0.26672358771057064,0.83630767708256,0.46471969857583745,0.9719422596030278,0.9391035655837856,0.9340836391245777,0.8513916562543549,0.6217204652567493,0.08474845807667193,0.5206693451472137,0.03978563152285547,0.7568088147529244,0.48032644265964963,0.7687847033062662,0.21831037258818192,0.8104834648825963,0.36454256096099713,0.6278967309895145,0.8395290661275066,0.31208084857590934,0.9345832539134163,0.5536471064924858,0.9325943948814995,0.49400232499620855,0.9685954373806174,0.6265999635238959,0.9037869576171854,0.5811517253760324,0.8132890766089403,0.2922566848412562,0.6894900729786101,0.06849569982859657,0.7888510483444098,0.23538524084552456,0.9640957995612351,0.8295804441600072,0.6848252075046866,0.08866294665715732,0.8007279825892275,0.3684586916745069,0.9710135498726247,0.9305741685377575,0.9272799664691127,0.8397960781330867,0.6046054609825888,0.06951994933219946,0.7391193980566997,0.38675337940941235,0.7485665796344647,0.1941449731376446,0.8319345782826766,0.4294443890951051
15,3.3187764738634407,0.6745094583480202,0.899385857547873,0.4016164379629372,0.7460147879794602,0.03921323654538211,0.9501143628357928,0.6698862113810097,0.8408141501161167,0.2439593774601286,0.7526504755712062,0.033765458868041665,0.9410258073961987,0.5789462846562842,0.9654639651625992,0.6776968966446963,0.8535508905601283,0.06977239330816054,0.9163639034400063,0.6508364577207343,0.9789237839425381,0.6178853952261524,0.8518774766940346,0.40375197414265335,0.6992516550729385,0.1446350065613423,0.8427226398216459,0.3450732852214415,0.7525760249615089,0.026307705538618876,0.974763153009375,0.8760269685846308,0.7819187021587684,0.1591773232018984,0.6608768941634862,0.027317263561844492,0.7351675613704657,0.14251501518702836,0.8995714228760516,0.3068333944424909,0.8693234025754139,0.513391807195734,0.9664522173289822,0.9342631388856659,0.946813162727761,0.8691212897620832,0.6776129943741309,0.10310904928846389,0.5728797688117495,0.04467387590400644,0.8225374716519456,0.5161962118364997,0.8079788746435326,0.23106354059807271,0.834870438722835,0.370270576911,0.6273680500484624,0.8613224959278423,0.3293727602435913,0.9112991708560674,0.5514926442310198,0.9122142263531828,0.4337794926960462,0.9581269475825154,0.6233004368887377,0.8948318890610538,0.5529214260882009,0.819399172037912,0.2884375186649476,0.6816487542437963,0.06563878351602839,0.7832665559018996,0.20402120912385563,0.9540061104568442,0.7866473134359931,0.6985483301382301,0.09140391596917646,0.8304454766511391,0.3980643515639445,0.9654105844087154,0.9279776387543653,0.9388747080569166,0.8547102702072009,0.6677117221979727,0.08796461842678717,0.799348069562187,0.4104101457367173,0.7948816113390527,0.20743787562838184,0.8419584890484579,0.42584877507343716
16,3.270507301122822,0.590706144988838,0.8684459253817155,0.38954363233822803,0.6981223571423285,0.027382245728255823,0.9594539480848367,0.6865434733663448,0.7097059803672611,0.15537605436230692,0.6112087868782318,0.010738058089645917,0.8925702216713337,0.4714598047183141,0.9526176983748261,0.6518641001634654,0.855522218493735,0.0654134408154928,0.8828517553990299,0.5569231228664772,0.917573602397532,0.44319591029840216,0.8248764230779944,0.3847817886680379,0.6552044804800841,0.11980083855296574,0.7847113932940166,0.30864001544684583,0.647814441528314,0.02165952304220286,0.9817229916816169,0.9119407402913599,0.7423359287649437,0.1163811654898189,0.6207111350809946,0.03215730782260242,0.6317581318676885,0.11035368728661285,0.8485896822549137,0.29554286470423236,0.8295901303411977,0.4610865206040915,0.9744340254502035,0.9515057385524026,0.9260445651087542,0.8073221847254242,0.6006960885919884,0.08020097095870886,0.5204508823471469,0.03955056896074008,0.7425855626342803,0.4554958691179787,0.7372653483783977,0.16988342142930601,0.7852639886566679,0.33556704032308704,0.5571415983787118,0.8271827714523443,0.3314869577519856,0.9331109575659383,0.5631695039585306,0.8551664184943448,0.3288694090747094,0.9412400781821338,0.5993779182454233,0.855735208737279,0.4635074913707301,0.7965546802010364,0.2675650340471251,0.6247245991212351,0.04719383686131823,0.7276761821443274,0.16145286025207253,0.964136614777799,0.8368883824579382,0.5940764249186178,0.07397084687650013,0.7865709187215336,0.36998664708697043,0.9739826122238033,0.9476568745778619,0.9187938306048258,0.7858816428196806,0.5873766914011349,0.0640501255984369,0.7188407614363626,0.35461603213357146,0.727435807534502,0.15793058893370165,0.8020377848448261,0.3971002595029097
17,3.229205436564237,0.6466043943132417,0.8561372951189935,0.3208227693114233,0.7777256117186574,0.036608870527675585,0.9551260925377428,0.6990026264551581,0.8079325979104274,0.22730518230770952,0.5290945709725635,0.007642205115518539,0.9498172571822204,0.6109787689948538,0.9685065887502904,0.6868717505002623,0.8707681670537712,0.05966612922631192,0.9218670090681282,0.6727578469461406,0.964090943984381,0.5905099854943374,0.8308915874222779,0.3958123986461709,0.6774971712083327,0.1533926222300922,0.856335530597128,0.4064543208867802,0.7504280293817762,0.041840503822116494,0.9712255267751243,0.8532897562182137,0.7777999215188786,0.11976514331388702,0.6449367809608193,0.04284397672958026,0.6972835565073959,0.13011894587918052,0.8815714826775107,0.2292179381134189,0.8480797827539136,0.4856238949047166,0.9564905957516058,0.8959746149485759,0.9344172181190091,0.8363402950135674,0.6191949533211245,0.09585445511337101,0.5569631054285404,0.02892932525635053,0.7999329605812843,0.5147534839362156,0.7681920711763364,0.17240549288781573,0.8143194772491628,0.35826089626074786,0.5900960437042911,0.8132488095205831,0.26189500605979477,0.9128246289104381,0.551658472759894,0.9257982637950197,0.41231087764445906,0.9590722604402664,0.6116094703560577,0.8991536288127865,0.5595597961691221,0.78932205483766,0.2927047771737237,0.6354741511358057,0.05502934467847714,0.7892544697994471,0.19258397447105374,0.9492477983003442,0.7809746429834848,0.6468961918973603,0.07677889576408266,0.8095785347914449,0.3740157163579421,0.9559339047902652,0.8875653942296851,0.9290352652057391,0.8274331793799415,0.606619719676027,0.07291808031896094,0.7754256587058236,0.399423104788029,0.747475419619545,0.14903850258791804,0.8215225475149097,0.4065937022326641
18,3.1888224842153106,0.6137057925038186,0.8590764276706914,0.35302701765950945,0.7368583150822777,0.034021874325848356,0.891324541227947,0.5890622183385974,0.777530711188334,0.22441451180951733,0.5600928342017188,0.013335753514603362,0.9396915966466775,0.6213931761374302,0.964054604890536,0.6491355645676536,0.8488924748162623,0.05290341688061645,0.9286307412156035,0.7047718682250863,0.9322518417069623,0.4597433089947424,0.8537962701215489,0.4593529123864975,0.6913900063846287,0.15582416206247926,0.8521327194730629,0.3367055563126257,0.7532881371476094,0.041612657456347665,0.9774756182603339,0.8862591451464574,0.7539900393480692,0.18809302350926807,0.6745262080408564,0.04844874933706893,0.7334077927264889,0.1875054525944045,0.8779788851014633,0.27294260033403095,0.8123929985575016,0.4769372955008149,0.9792924268419987,0.9580960079061301,0.9197265844979138,0.8197069496923609,0.6265353172179013,0.10827526350442265,0.5519122651917376,0.03441578013518291,0.784879662508952,0.5092067151773383,0.7430587262200998,0.204526593337246,0.80862260562643,0.36114298364793385,0.5529121508502952,0.8207662432345265,0.27106108148950503,0.8623129660956376,0.43328811069543965,0.9110970933085017,0.40522043368502525,0.9525221717803483,0.5766711843086167,0.9062835122752925,0.5829434933065131,0.8118120592255378,0.31315563695567483,0.6354577844550106,0.057160384380096865,0.770001617361642,0.12699009765447478,0.9514437048285671,0.779301222199257,0.6734174282694932,0.10150689733746698,0.760919167318834,0.34174843288917217,0.9766045205297638,0.948959321698198,0.9161526626101641,0.8095189041648736,0.6105701537416945,0.08509224436912546,0.7484987479472542,0.388691948169048,0.7161369638194703,0.162616659395659,0.8139997998001087,0.39899537829363413
19,3.1454061293431113,0.6184643402655388,0.8837067330528434,0.3452706222575768,0.7275544387060495,0.058242357937514366,0.9602768116106531,0.6685322196850176,0.8070951006766596,0.21390061046113762,0.4972752120296011,0.014554361205155537,0.9455386645705627,0.5546308184682792,0.9600494856201076,0.6009791930820995,0.815414881927584,0.04997446687283181,0.888130981537393,0.6184402556668237,0.9527122140241273,0.48771516931318043,0.8312940167250165,0.3985783863261404,0.7386101440385617,0.19527391984257678,0.8559690136471702,0.40645369920153257,0.714592887163209,0.021014580812619258,0.9817116217682822,0.9116701573917372,0.7317630837705342,0.14435136129153792,0.664539828682595,0.052279610944121264,0.704317876363452,0.1397832405874686,0.9064932424351154,0.306183604864093,0.8566162706518781,0.5271828916379581,0.9713366144657537,0.9403731234815478,0.9422933328239856,0.8642433446096318,0.6410673470975147,0.08068227669169364,0.5312418426599947,0.05086041101591809,0.7704575711685366,0.4733380330014071,0.7239030876764116,0.17719835384648472,0.8078447040343689,0.35775796424984946,0.5699180544541369,0.8338353628624627,0.25162081912087697,0.9341065854995114,0.5361160508933317,0.9167850312754342,0.3901217034054502,0.9540342189652882,0.5500346163849567,0.8620729374259858,0.4855261648373383,0.7944600337725689,0.23016583707846536,0.6791203118901837,0.06186701092351432,0.7653634652708345,0.171239221832748,0.955619664038821,0.803565581795848,0.6358538359823482,0.06818866769537026,0.7995779423161478,0.389272063955047,0.9690847762520904,0.9312994749929757,0.9316293841173255,0.8421581085173065,0.6213280954459479,0.06587629073805534,0.733218446557175,0.3452320568745872,0.7053247295785156,0.15194272820568933,0.8182134263281651,0.3921391498282225
20,3.096457284761083,0.6478674656327106,0.8922752648098566,0.39502793332917074,0.7301023800979637,0.07048576567775398,0.9345166903860146,0.6287078998390762,0.7889424585080945,0.1753172724759628,0.6025233844794051,0.01691194865514683,0.945193979287355,0.5959800218086327,0.9699780754892939,0.7169545024179043,0.8167814821394497,0.048655618558273106,0.878270687984723,0.5654008409256759,0.9471833312391463,0.3845601891989902,0.7918443533384684,0.3032743689682635,0.7084594868563558,0.19492614144821538,0.8489702955859084,0.40218594397017005,0.729266319275593,0.02735688994455284,0.9868785420662799,0.9365619624358361,0.7982167046529629,0.1825606841132056,0.6341467562235327,0.033764919342501545,0.7166108983654138,0.19332169619235304,0.8879475890045051,0.33164745256428274,0.8435186260873868,0.48606297920219455,0.9704346221776207,0.9428232376911659,0.9258822777604285,0.8132903607158792,0.6141998628287071,0.08071425231612428,0.5784839845250643,0.06692862899325447,0.776205474904512,0.49074569349343977,0.6911160458943907,0.16125612596335281,0.8079980605372474,0.35559320500928376,0.5814609216671073,0.8343733484384869,0.2958505862395697,0.888706041075981,0.511166751429782,0.9055486181736518,0.41523406966402865,0.9569354453330335,0.6041533990859719,0.8487544776364652,0.4455464503122701,0.7571463588314153,0.18307682324513375,0.6468200378531952,0.05938049952414743,0.7607304593307064,0.17708164832658463,0.9594227564964658,0.8157641327518493,0.6580537175599679,0.0856117091517547,0.7916411546676767,0.3302636072089511,0.9679475729594987,0.9294989951532031,0.9173211395053067,0.7941444689802616,0.6010490324458023,0.06488317598320115,0.7444452848201492,0.3521104307741487,0.6677113763521074,0.1223198669291653,0.8066629263424944,0.38663041342250143
21,3.0548531670167547,0.6446657267066149,0.8632750940221269,0.372299313542637,0.7517082618089261,0.07215525024890895,0.9639514105720176,0.7188373063706961,0.7698614778944644,0.2385713557743841,0.6602502554488722,0.026350762102122893,0.9328960224144919,0.6019508005954108,0.9602383054823419,0.6721165458861209,0.8314806590210747,0.08824379611502427,0.8953204793133922,0.6707177346980665,0.9352860322056678,0.37310589011650735,0.8422269654063625,0.47182517691241477,0.7137716975006351,0.18563721629376143,0.8384216519235247,0.3424350144962343,0.6824558041669995,0.022079815955463357,0.9787220549388076,0.8923986597510257,0.7734679383116884,0.18658509570727613,0.7119867700918224,0.06424533641289441,0.7554231001868461,0.18657735814403992,0.8590837419766376,0.28547174703035033,0.8407275796897069,0.49292147192662755,0.9625503517704073,0.9333036143838529,0.9229920955620747,0.8279366289007596,0.6033706136225975,0.08085715485363693,0.6315536069602734,0.058458605924796604,0.8060778527094772,0.5343400916286518,0.7677415704039066,0.20770359952299625,0.8174938997463517,0.36950482089594855,0.5748524099039563,0.8074141730064045,0.2731477098790012,0.9266970050749327,0.5963771181859749,0.8895357818715482,0.3889145788854785,0.94654425809716,0.5859941171119041,0.8596341798189702,0.5376016390440124,0.8027132749528197,0.287267545775487,0.6346516205112279,0.03735567153395665,0.7386538404987356,0.09780900104199423,0.9484476285473451,0.766583067911211,0.6904861159052409,0.09667975975811728,0.7782514034615798,0.3330973692140552,0.9613051010349518,0.9275879733697623,0.9138613879213338,0.8117028039957486,0.5931015083175711,0.06619026587130307,0.7624314048110262,0.3704028534929369,0.7502697500932488,0.16979267182019667,0.812749902120256,0.3966565091806963
22,3.010050559097109,0.5974327341088004,0.8730334107279197,0.3537976029803529,0.7513697540546941,0.08657492314062876,0.9628551969218353,0.7217086297123745,0.6876297823098478,0.1752880067938185,0.6654375564732011,0.02183261090552989,0.9298561425393613,0.5780102260955088,0.9455359624907275,0.4764834699211671,0.8388042302976868,0.07529985631078467,0.8642365848390653,0.5537610940789092,0.9469643391146899,0.4444532290617431,0.819618277439547,0.4113398811806577,0.7273940582004039,0.16559715982617382,0.848693267681432,0.40371751839836567,0.6980068544624547,0.027839402974459575,0.9891446882306765,0.9480987773282585,0.7665875360153093,0.17265722925499366,0.6920703100278192,0.051481597800427034,0.7589861683758683,0.20145360141052346,0.8707660317745086,0.3374776649631903,0.8310824977921489,0.5302604448812575,0.9532708019039178,0.9168027972737294,0.9166496765143026,0.816845539484111,0.6482343389071976,0.08995536852235102,0.6532834370905939,0.0667821060367475,0.7726268538135592,0.520120070143715,0.7116675739612937,0.19706244216869054,0.8124540512292332,0.3594115865634026,0.5287690545422504,0.821985315839542,0.24591553489444098,0.9376855447809201,0.5803139448357392,0.8653758129967916,0.36987381349501786,0.9304734861279305,0.4070984293636491,0.8375654345185571,0.42953825547023256,0.7767122309065867,0.23007997789600168,0.6473893045839296,0.04090083454005226,0.7432493530553432,0.14722713174978339,0.9579606620788289,0.8131313742141038,0.6922272700720624,0.08384884229431536,0.7637036107082957,0.34910181946099095,0.9506451076529561,0.9079630013083801,0.9086082912540218,0.7984877973475502,0.6300285173868762,0.07259866011537332,0.7260506458879912,0.3477042786942675,0.6805302499067513,0.13755324708549954,0.8043869273598365,0.37258355892283734
23,2.9732349966600715,0.7219186934555282,0.8520962394292959,0.35054371331728956,0.7558764853646266,0.08808193757820819,0.8885992177538198,0.6698555039815556,0.7616160070058697,0.2606539133182589,0.735056944690745,0.021965261428287912,0.9695496667024252,0.7449165180966983,0.9620206599304978,0.5855384141914348,0.8521338461099817,0.11815104349814302,0.8939280648136954,0.681188320099991,0.9306018387852849,0.41720318702815345,0.8551401226977927,0.5063881969178229,0.7174004741673241,0.2315680452823394,0.852774686389322,0.43749913755693737,0.7504179987152931,0.06745133982048006,0.9836884665001541,0.9247635864375623,0.7525673674421607,0.1564022832953076,0.7423881525181677,0.13514125455927906,0.7132007016237513,0.2051030551091082,0.8484268229478134,0.32401638897358054,0.8383835303457156,0.5389717894464121,0.9784996350151092,0.9591950507935527,0.9337917974022248,0.848898537352945,0.5937784725268503,0.10823055664019104,0.5965556940080182,0.06452904235141041,0.7851635496240152,0.5428255177003818,0.7119794591114373,0.2037108338154596,0.817524457754669,0.3920304780227228,0.6144153669926866,0.7987727966306113,0.2628825717649206,0.8489873960591836,0.5083770379706616,0.9255851359798373,0.45449387654294127,0.9526235038780496,0.5006350735614568,0.8617599995029618,0.5385162359902552,0.8019757903177656,0.31346325129607466,0.6399007088031761,0.05252662320385215,0.7307945656648827,0.1143814065414478,0.9478213244353448,0.7649881225938017,0.6490314788459394,0.07977830578081987,0.7678386501164757,0.35233058223802055,0.9754618413471245,0.9489641103808554,0.9225397909204508,0.8186128439056567,0.5661477278238518,0.0642180232019659,0.7361512010085243,0.3566606192434044,0.6921817232375979,0.14599653042305308,0.8010983521607361,0.3923015759149492
24,2.922886941368803,0.6570614498883798,0.9113499596299881,0.4968762645939598,0.7587279045075174,0.14749832025555085,0.9336438933994377,0.6745196418767786,0.7692582776664014,0.2104872014422604,0.6010317178831099,0.010936436442562125,0.963050900733528,0.7041234174209767,0.9595438517468006,0.6367100050260702,0.8433307233923092,0.0840725022460044,0.8458867760430882,0.5962782644573494,0.945295202071221,0.42007183633991474,0.7994456162448631,0.4436012225043746,0.7337862081154982,0.2295985015701738,0.8513701581783267,0.409491298429557,0.6815561706250238,0.0437866757739941,0.9936031350129741,0.9691232982733319,0.7997359325277371,0.21551753419372907,0.6988315415539639,0.08632315067035287,0.706180916081788,0.21193269004950174,0.8738068861380217,0.33771122315349394,0.8570562434584681,0.5248446788359513,0.9651657306775306,0.9367626829224855,0.9016423889547706,0.780350106762365,0.586182575598706,0.08124028140483594,0.5487345041322313,0.07190615590958052,0.7597394888398186,0.5194329243138767,0.6458829238693298,0.1581577773725913,0.8051476779647099,0.3846674650862163,0.556436690457309,0.8463263851434674,0.32427999890150483,0.8889313454528126,0.5421533333292424,0.9185000665130428,0.4270815409041005,0.9447071321021445,0.5232898543014051,0.8156063155908649,0.4648330075207495,0.7504506668493037,0.24235131990250475,0.6580920646777653,0.05672256069659998,0.7317752749514792,0.10191103133586396,0.961887875884206,0.8233695278998184,0.6462864892278118,0.08607418461637553,0.7779339719620115,0.3309513703815904,0.9629047128204232,0.930169139984936,0.8913789326888105,0.7613254239400349,0.5720479169697851,0.05564099852236876,0.7031906870894938,0.32453563325945145,0.628041477060798,0.1092447200147279,0.7936288321865137,0.38149585284445464
25,2.885525354528354,0.6609094113500176,0.884808553359766,0.4365594533351572,0.7576914557313248,0.12633549487303616,0.9491044082986305,0.7279462362729524,0.7749756074890213,0.28324988608354434,0.7052913102345626,0.016939913309223016,0.9525307942687881,0.64485155759558,0.9489846813352025,0.6325738083981194,0.8760168900469132,0.14514555402463308,0.8912769559047211,0.6278584738257197,0.923742084259645,0.3660681929872094,0.8564285442636579,0.5553913313200314,0.7390211701837837,0.2608852867684988,0.8758866924311928,0.4882689732852338,0.7587577814197926,0.101260512779933,0.9931278173062056,0.968198772704944,0.8262337931108626,0.23903431859197236,0.7534116267999196,0.12363529367392856,0.7751965572370294,0.27454757183402423,0.8478479697404616,0.3090129338332359,0.8764254972639858,0.5982474440815368,0.9626081010633903,0.9411059816920313,0.9231421111948628,0.8371639087259841,0.6075308908378334,0.13714213681456824,0.7040565682286074,0.109382671176293,0.802138435485796,0.5447856884519691,0.7428824947482552,0.24529912787444283,0.8349661073940081,0.4131111740120693,0.5767909066878139,0.8163550325366089,0.30495095717305404,0.900780598508494,0.576525844644146,0.900920240133541,0.3930175093128337,0.9269171148779549,0.4866714872550672,0.8606255586571399,0.49120698462049667,0.8053910601984736,0.319685712518908,0.6359722857538535,0.04837071811576804,0.7666764688584368,0.18315805258432832,0.9571081626698715,0.822634941196414,0.6854422120026127,0.07258906712962801,0.783510907641674,0.3287284358035859,0.9620423470568699,0.9321011141233827,0.9149633619943927,0.8117507471749863,0.5853464280517969,0.07585273113886454,0.7512565604934931,0.3509262833000662,0.7244328235732935,0.17033389791309947,0.8111088226880316,0.3980315302502893
26,2.8432721681564597,0.721066854658677,0.8431157076145797,0.3294510717245346,0.7498542150689594,0.14093891820034019,0.9350497991817847,0.6587706408859214,0.6873934355133042,0.16390240751355972,0.6581669045226413,0.0273723469308643,0.9353106664477514,0.5857622941006455,0.9446403131520801,0.4494714464382018,0.8794154061090166,0.08866523418075041,0.8960103932202886,0.6299696988317092,0.9422347355729295,0.4306148123698286,0.8604108894994065,0.506349448009067,0.7210182563612296,0.22877548687592517,0.8402533660867351,0.4458813177618959,0.7086546023368326,0.07535245891922715,0.9943257421718461,0.971586946015427,0.756343397910037,0.1998896956622651,0.6688570493012198,0.12368198591823722,0.689726739766402,0.22099755014425318,0.8701729757206076,0.29829246759571876,0.878449932608104,0.6108514136678498,0.9630727946035641,0.9374072175972836,0.9033721884741646,0.7986087743497642,0.6273990483558637,0.10928668946178972,0.587695314423901,0.09041475638445191,0.7790923363272858,0.542179979724002,0.697248553736452,0.2254800496719075,0.8083571063110379,0.3803828888052085,0.6152965018944401,0.78405123465657,0.21123589947593352,0.8966179028376736,0.5077426449423639,0.874811009982678,0.342953187457501,0.9195602232298506,0.368279310723095,0.8648960004604144,0.48560297046539797,0.7995622936116233,0.2800040726353601,0.641542832442958,0.042883048903003734,0.7235348173851673,0.12657090863013415,0.9623772515277339,0.827861209160219,0.5999709918272627,0.07178409336405356,0.7999726242121602,0.3588816447891101,0.9615527764109782,0.9282292556194435,0.8963261320314697,0.7770940138986544,0.6056198651728988,0.07600130740186291,0.7233133074632199,0.3485210250172608,0.6791525550167847,0.16280506679731505,0.7958038636418403,0.36977810370504427
27,2.809383363396563,0.6875514040653272,0.8927987631360459,0.44713985304391435,0.7479625948931573,0.14737095120157476,0.9321418170473981,0.6569046578054536,0.7030255149291391,0.1712909048665583,0.689347430170271,0.01565136423933674,0.9517255898428738,0.580758933713842,0.9511106081530738,0.5496527360972909,0.8742065998609495,0.11519500679676034,0.8657280662388955,0.5657882849603635,0.9124396616353984,0.37091702900462253,0.8406832749568269,0.5049478821482153,0.7817713887152521,0.2722517282974997,0.8475411007551613,0.43910168577169095,0.730804007420609,0.08081804177073595,0.9931793475831425,0.9679557268592376,0.7422468983830738,0.21049042766531426,0.7133546677526491,0.1350958066562323,0.7423820562924252,0.24695351304647029,0.8484604612685884,0.28478350596019114,0.8654070782466705,0.5805043461313686,0.95925644460135,0.9314760201595639,0.8964587104775479,0.7887148778850785,0.624751842767884,0.10879365542334621,0.6344597132063948,0.09085274613395178,0.804627491644784,0.5543611442396021,0.6801433272109195,0.20176670412432482,0.8163851714304032,0.38536682823086693,0.5876288659793815,0.820881835601365,0.2773570889053729,0.8876361058826334,0.511458156020899,0.9091160058989204,0.35157889954183213,0.9340699821682711,0.46118985067886104,0.8376690931618158,0.42702851906874784,0.7819034607871506,0.2852740310392804,0.6747168354393196,0.0647901790076392,0.7122206375345528,0.1427889346574703,0.9558861957814734,0.8146302560087061,0.6507645014311584,0.09742805482577374,0.7822071286018116,0.34417490757681873,0.9567753231014153,0.923263904379513,0.8871502299925145,0.7694132491850716,0.5975288811290558,0.06938010028574923,0.7436773848291096,0.35519788181958145,0.65343856769862,0.13554433046927866,0.7991026355649492,0.3769061464669122
28,2.7740548147520436,0.6484843144166373,0.8880354219568973,0.4356530100263124,0.7869589656460872,0.1962794878310347,0.9422505705875136,0.6459577444003364,0.8445346584547841,0.33552505265025034,0.6987391522193793,0.04824115091006479,0.9563847663588626,0.684221049487309,0.9523384080064973,0.556109363168642,0.8540812678610984,0.12444656607055238,0.882451356783636,0.6804135358205472,0.9812468802024475,0.6596570684682748,0.8398346440149038,0.5220039749186447,0.7856737475598016,0.2942111358457897,0.8816936681512586,0.48447135084165077,0.6789330862055019,0.06571654025955395,0.9958008097021742,0.9787279054013704,0.7517199997849833,0.2138733370777594,0.7178280166969806,0.13672485452345737,0.7613905077349206,0.2929569611191617,0.8776884244308895,0.291233353682289,0.8612714909152713,0.5695560157573767,0.9612297741972009,0.9344579382398889,0.884131881413835,0.738038078835263,0.6068042859669129,0.09619481942728453,0.6246211608171869,0.10182111649661504,0.7953830791955121,0.5695421063372115,0.6996579818944838,0.22896467348694843,0.8273340002599625,0.41865377658013814,0.5326460481099656,0.822657188002244,0.2814487634459289,0.9062733792380454,0.5355165110068262,0.9141654544128186,0.43546155859089786,0.9308001517941222,0.4349758508533007,0.8449293674255821,0.5300502970028421,0.7785311193610934,0.2833168646700067,0.6891044068337188,0.05379783992782196,0.737310327589249,0.13544330785863146,0.9580131593045911,0.8214498853996568,0.6556500884185037,0.09383611667163302,0.7759203179782533,0.3491127928742233,0.9590029238645287,0.928006020268127,0.877851851596702,0.7274356024448433,0.5903502594694214,0.06083815105614767,0.7237193832740398,0.3508844043733751,0.678471913465125,0.14488596451753744,0.8026719557517524,0.3854037456851125
29,2.743532388866641,0.7337563153565974,0.9236108322022157,0.5619422941488554,0.8479736010195927,0.22899683875126986,0.9823883882476554,0.809178058876854,0.8234159098142487,0.38924601291591593,0.7892258280625013,0.03603006646760988,0.9753706198881728,0.787291467447893,0.9508980278594155,0.6561684847599327,0.9191615180645204,0.2235668425594135,0.9348006787050867,0.7963742955389397,0.9599396415846718,0.6030734556678703,0.8453335709816895,0.5908932483067635,0.792600265413363,0.3448614243629354,0.9260421284100695,0.6535655080342633,0.7733286923046159,0.09993993274387225,0.9880104962350603,0.9417394403039108,0.8796877687709642,0.2941557328790466,0.7832359893126116,0.13246706708832234,0.7984216707451597,0.3400301882177421,0.9125199089024439,0.39173160665914775,0.8509128616868735,0.5856810321945188,0.9660400145938959,0.9433614184607617,0.9331126868800218,0.8454321560307312,0.6011839663350624,0.15065329126508684,0.6697183224322542,0.10823504590516918,0.8174831590176653,0.6300155790520159,0.7195692433951544,0.2608733330309052,0.8601532996486532,0.4771347623719133,0.6128293241695304,0.8477891096541986,0.35364297726669547,0.9457396178313598,0.6728875222601364,0.916018343295986,0.44385793987729183,0.927641854735564,0.5327481993594068,0.8922175739332194,0.6196180887917461,0.7706390015169148,0.32829508265933,0.6404815161421635,0.05919986934982097,0.7901807769217197,0.21414264870451974,0.9466165693596793,0.7609975888987154,0.6886020782331167,0.12390568006808327,0.7615633175111313,0.3412662691924394,0.9658640837154071,0.9364474785671584,0.9248096938960038,0.8289906210914605,0.5704887724913914,0.08264846759703359,0.7419118617631364,0.3818799452295853,0.7096383439015292,0.18185081389605467,0.8150126571814076,0.42889869955059234
