epoch,train_loss,train_accuracy,train_anterior myocardial infarction_rocauc,train_anterior myocardial infarction_prauc,train_atrial fibrillation_rocauc,train_atrial fibrillation_prauc,train_atrial flutter_rocauc,train_atrial flutter_prauc,train_bundle branch block_rocauc,train_bundle branch block_prauc,train_complete right bundle branch block_rocauc,train_complete right bundle branch block_prauc,train_early repolarization_rocauc,train_early repolarization_prauc,train_left anterior fascicular block_rocauc,train_left anterior fascicular block_prauc,train_left atrial enlargement_rocauc,train_left atrial enlargement_prauc,train_left axis deviation_rocauc,train_left axis deviation_prauc,train_left bundle branch block_rocauc,train_left bundle branch block_prauc,train_low qrs voltages_rocauc,train_low qrs voltages_prauc,train_myocardial ischemia_rocauc,train_myocardial ischemia_prauc,train_nonspecific st t abnormality_rocauc,train_nonspecific st t abnormality_prauc,train_normal ecg_rocauc,train_normal ecg_prauc,train_pacing rhythm_rocauc,train_pacing rhythm_prauc,train_premature ventricular contractions_rocauc,train_premature ventricular contractions_prauc,train_prolonged pr interval_rocauc,train_prolonged pr interval_prauc,train_prolonged qt interval_rocauc,train_prolonged qt interval_prauc,train_qwave abnormal_rocauc,train_qwave abnormal_prauc,train_right axis deviation_rocauc,train_right axis deviation_prauc,train_sinus arrhythmia_rocauc,train_sinus arrhythmia_prauc,train_sinus tachycardia_rocauc,train_sinus tachycardia_prauc,train_st depression_rocauc,train_st depression_prauc,train_st interval abnormal_rocauc,train_st interval abnormal_prauc,train_t wave inversion_rocauc,train_t wave inversion_prauc,train_ventricular ectopics_rocauc,train_ventricular ectopics_prauc,train_mean_rocaucs,train_mean_praucs,valid_accuracy,valid_atrial fibrillation_rocauc,valid_atrial fibrillation_prauc,valid_atrial flutter_rocauc,valid_atrial flutter_prauc,valid_complete right bundle branch block_rocauc,valid_complete right bundle branch block_prauc,valid_left anterior fascicular block_rocauc,valid_left anterior fascicular block_prauc,valid_left axis deviation_rocauc,valid_left axis deviation_prauc,valid_low qrs voltages_rocauc,valid_low qrs voltages_prauc,valid_myocardial ischemia_rocauc,valid_myocardial ischemia_prauc,valid_normal ecg_rocauc,valid_normal ecg_prauc,valid_pacing rhythm_rocauc,valid_pacing rhythm_prauc,valid_qwave abnormal_rocauc,valid_qwave abnormal_prauc,valid_right axis deviation_rocauc,valid_right axis deviation_prauc,valid_sinus arrhythmia_rocauc,valid_sinus arrhythmia_prauc,valid_sinus tachycardia_rocauc,valid_sinus tachycardia_prauc,valid_st depression_rocauc,valid_st depression_prauc,valid_t wave inversion_rocauc,valid_t wave inversion_prauc,valid_ventricular ectopics_rocauc,valid_ventricular ectopics_prauc,valid_mean_rocaucs,valid_mean_praucs
0,4.68814911106725,0.4670426506873458,0.7762943750521389,0.024267543252766338,0.8964096860547428,0.12270516255804584,0.9754442351503894,0.8274283786072971,0.9273207638682668,0.5926594313865227,0.9847314449367298,0.6458101501447956,0.8059614523903295,0.022471970134372986,0.8903595010652623,0.24419545041666962,0.7839492292671381,0.03005389576628377,0.7875654519534017,0.511924883683314,0.9076717127509661,0.13111838518345148,0.42898204911582893,0.016185110608083607,0.9067369411354836,0.3809537624322089,0.5555067880435853,0.013099172789559261,0.9410396651391733,0.7731275623992405,0.9606127685198387,0.7501972044753912,0.8949902006112228,0.38550812659366734,0.5726780803690233,0.008844417649534291,0.5683365616491678,0.02685420014907333,0.5211002904012195,0.0400766017757166,0.4597634162716355,0.01574849964575084,0.8125588401693199,0.3801627968940485,0.9880326410226841,0.9433444172441927,0.5587470420125237,0.07238807916669662,0.5423432395909948,0.020358017974867974,0.6923712808446083,0.21730756751245522,0.9460897463828364,0.44659888287881416,0.7725229770680196,0.2939765258201085,0.469556789144418,0.8893903139247341,0.12947443103045125,0.9741703309585212,0.8246923172512939,0.9861402882854529,0.6830785805009483,0.9056577867967703,0.25108952367974924,0.777595668377348,0.4871128806567629,0.379505725305593,0.014189120514539811,0.8999264074753434,0.372710570303174,0.9350558014470417,0.7460103824600155,0.9536676033912949,0.7472124348636882,0.5328756127635637,0.03921245603281434,0.4964458266452648,0.020932058813890812,0.8098326255153153,0.3852501920729175,0.9881202522251358,0.9297612459912666,0.5543952097725122,0.07662727813293935,0.6957866193701188,0.2435993050895482,0.9507880438803266,0.5160458947038803,0.795584632258396,0.4041874170061175
1,4.1918706463641335,0.5221184349665139,0.7454042449384065,0.02302615616736218,0.8688760612197132,0.1215389570294893,0.972261083661906,0.8314043487512071,0.8718775787295565,0.5173392025988693,0.9830448864823212,0.679577758739601,0.8341008256363736,0.043485687454616284,0.9261498623374412,0.41950132696367826,0.7786242921086302,0.030543878207818315,0.8642422559802361,0.562391712170274,0.9361430290729946,0.40669137208091494,0.49080473160074156,0.0303373922032458,0.9187499818446914,0.4658938675295231,0.6093027019875752,0.015427503891062158,0.9516321044841622,0.8080829789218,0.9577153344049424,0.8069209653944545,0.9386066159713953,0.39888510724778525,0.6339416698699942,0.012566676785049054,0.6110223208606191,0.025216709667092406,0.5505268153099394,0.05075460003158254,0.6221689746727035,0.0428296059387637,0.8761477836670986,0.5823788453273865,0.9867986108371279,0.9364448119516959,0.5948888365552643,0.09034271416075257,0.5444836611954336,0.023033329301406384,0.6598577971888917,0.26104058729494256,0.9696301427480217,0.6299469027569458,0.7960385462833146,0.3390616537910507,0.5248039474843599,0.8548855866386973,0.13825480451779726,0.9706674566757629,0.8166494044908335,0.9850220045895441,0.716957720401385,0.9285229480592374,0.4473388450949327,0.8582783380469874,0.5479846700075026,0.4433278499823903,0.028401283530338724,0.9160572318413531,0.43220061080716937,0.9456153610362756,0.7852655619502628,0.9567570053441019,0.8015837659905527,0.5633799058754985,0.05728770083718515,0.6497833065810593,0.058045746073400115,0.8724448372631062,0.5738249838787242,0.9860594585533609,0.9304147608116011,0.6052977787380639,0.0915077232508045,0.669075028898368,0.282916393649036,0.9686320455343662,0.6115726014499334,0.8233628839786358,0.4575129110463412
2,4.013876394748744,0.5373340383033721,0.7245366894435218,0.018681960863399252,0.9118061454719091,0.19052156374435728,0.9713935517118101,0.8265952194400119,0.8984395420287948,0.5528305232557906,0.9887008282452933,0.7368456064163414,0.8413313130213257,0.032473245765492056,0.8915810328087181,0.31721651872514567,0.7669716106804271,0.021456881240316722,0.8342200619647342,0.452001976498246,0.9156408164785866,0.28121251346394693,0.5530686478304929,0.034408548704253604,0.9342584206362614,0.5001344490841148,0.5458382241588484,0.011666381270055629,0.95830566055979,0.838871644781565,0.981364388806337,0.8788926570690143,0.9530500200976633,0.4487320043180615,0.6595680271773593,0.030711558471981773,0.6692560651212983,0.024193875112485018,0.6274099814241914,0.0884204764376626,0.6542118135560637,0.08753849254875384,0.9256129357731333,0.6905588554033676,0.9878702925615985,0.9286865416531633,0.5908803653342071,0.0823514794666668,0.6252922228560146,0.03082498181847529,0.7593833886116569,0.31103656361657905,0.9745942667813181,0.6019405649647355,0.8132533197362058,0.3468771186205378,0.5300026434047053,0.9064144913678133,0.2079218279000316,0.9690675686380211,0.8186529414953939,0.9872731231427059,0.7617056111316678,0.8960806959975821,0.33040622934150904,0.8239001301213889,0.43531237380540505,0.5121689587932619,0.02473704132561057,0.9255072904098708,0.4678867969463095,0.9522861220681794,0.8236692721674923,0.973832610071422,0.8813968996895508,0.6324291303780047,0.10224293898183875,0.6615240770465489,0.08376002851144485,0.9208109805034607,0.6746549215186074,0.9868600865316239,0.9064566820425422,0.5999197760932757,0.08371998277842588,0.7722698357012233,0.3307000139713349,0.9738675008507712,0.6438796704132267,0.8433882736071971,0.47356895200127447
3,3.923032104723911,0.43188227000352486,0.638041013506852,0.014417288609206247,0.8780257517975706,0.12247838787742021,0.9847460470323114,0.9127496688756076,0.8757043530701525,0.47649875224270555,0.985521042697559,0.7072387104146771,0.8498215728878464,0.04619038062115695,0.9127909626074452,0.3970714762687518,0.7080647839478404,0.021263938520999788,0.726207042488706,0.28791745090978604,0.9479912543022668,0.2877393588587099,0.534106103582159,0.02269066854928325,0.9121706059825542,0.4491424552222511,0.6325682534052812,0.01572087932336077,0.8899740893045697,0.6343622473797172,0.976721797927337,0.8688209303434676,0.9349840695657045,0.5072974155982692,0.5947387234657704,0.02438559500059211,0.5977052413605705,0.022010131957915437,0.5752936525399563,0.06534706408098859,0.5639618221138958,0.040874403864376366,0.8658937111119513,0.6560626605519804,0.9709204718987218,0.8918361309747879,0.6441213298201544,0.10241626201997768,0.6682425638475411,0.03348034070093962,0.7226752431679958,0.2875707549800709,0.9561592930269284,0.3761425121530464,0.790275030633063,0.3181433025346171,0.44726407613005553,0.8661247578023668,0.12471258542321477,0.9834659628887114,0.904005539037311,0.9858589658327952,0.7172057028959329,0.9070719096757479,0.39266685011353014,0.7125467641167049,0.2698049505383513,0.5071997972735003,0.021835699997953796,0.9076806155574221,0.4193649055032682,0.8817778488452582,0.5999885864954293,0.9758269168951973,0.8776815497480199,0.5899018636550845,0.08261628961937689,0.5788142054574639,0.05162547315032552,0.8546309616930189,0.6180272073941537,0.971467308429338,0.878876166027174,0.6508275466088895,0.09427829277716179,0.7307852355842447,0.2892887893697717,0.9477089139798262,0.43735564559731593,0.8157305983934731,0.42370838960551815
4,3.843879910196657,0.47835154505933497,0.6603181555044909,0.018380690056928897,0.9339512971412474,0.43073752006626004,0.9763779818924961,0.8703163518299601,0.650311073517124,0.2690630508519352,0.9441452580033561,0.5475685629742473,0.880906425285105,0.08933220689940094,0.8353523007086271,0.45663015322826583,0.7056194151378709,0.01834529850770584,0.7887904894717941,0.5118287562159536,0.8513319131760282,0.32329154973308516,0.5353188460822055,0.031036647515020648,0.8678356420844306,0.4288971466960681,0.5003414429553816,0.00884328945984085,0.9629703048428802,0.8634574143930074,0.9574174148540509,0.7661796756076544,0.9430075775959081,0.3845322815813818,0.6226762733637567,0.03626721165657942,0.48495937191663513,0.012924047649855483,0.5694882006642495,0.05996412761283612,0.6108628141995383,0.08513613341633054,0.9194526938190768,0.701500570483092,0.9868334010244986,0.9359925774284128,0.45577159103320225,0.06066712479960318,0.6363140296101937,0.07977124333964465,0.5648591318705388,0.21803600135497325,0.978167324548338,0.6781818877071786,0.7624377065501162,0.34180313542558544,0.4779275707110759,0.9251740849104297,0.4317428159638831,0.97416953350654,0.8639688383585015,0.9341945285477617,0.5312188832235335,0.8374744182030138,0.4530837865641967,0.7745595557486585,0.4740329381195235,0.48477962083272486,0.019659586474010178,0.8393364494546787,0.3880991898276791,0.9546300014363218,0.8411146119740964,0.9574433821535123,0.7654737575211364,0.568025231293132,0.05615864073045643,0.6367584269662921,0.08934569265689159,0.9125464289136899,0.7043953752261863,0.9865076241316746,0.9221190884459498,0.45070721074880316,0.05844946165536161,0.5607894731634588,0.2249566489996334,0.973139770225577,0.6634486858616749,0.7981397337647668,0.46795425010016967
5,3.7848312628141736,0.5801315944072377,0.6816627357000028,0.019738227386198046,0.8989357099608046,0.4572666935100341,0.9734055544557095,0.8680369858042162,0.6800882986530483,0.15130361356258096,0.9622054210988167,0.5259425690214032,0.8876640295608509,0.08097067974920084,0.9138849128281099,0.3500055737535691,0.7878844984545491,0.03204977514020894,0.8595326235347216,0.5327055096563914,0.9375395820870527,0.44013000783636197,0.5342398865104577,0.039274462218573614,0.9045895972349483,0.5024337341071026,0.6039509425570784,0.0244268860048195,0.9686857482825967,0.8669619811071294,0.9722323877431363,0.8453192652754487,0.8400795548011973,0.2840575778816078,0.6815842507991892,0.04687844450459362,0.563996965239065,0.02320707046397909,0.5942487662163715,0.1171572048800183,0.6568825758440857,0.11529408627135489,0.9233040306633913,0.7317079080830223,0.9780191829265897,0.9233846657305402,0.5744070827872434,0.11368220136349243,0.6394501388504655,0.07739375185517322,0.6137570148410034,0.2712502047567349,0.9464405696760271,0.6004642631933002,0.7914873869733274,0.3477324362737329,0.5699180544541369,0.8799287361343999,0.4359571766460572,0.9720747268328237,0.8614043033369821,0.9562392685185086,0.5330697036052764,0.9147864945382324,0.38366638278620974,0.8462372899826924,0.47329346098939984,0.47202503156863923,0.02051148003667655,0.879485074130292,0.4646786350343983,0.9634240531680576,0.8528873792345117,0.9714440250529889,0.8299127156591942,0.5890120694331434,0.11371233374097725,0.6722331460674158,0.107245517155421,0.9186495041410394,0.7108689658481401,0.9796369334515839,0.9199495090991178,0.566958953768223,0.10404452073259735,0.6156991991568941,0.27448818068541936,0.9331562483208462,0.5588147929898888,0.8206869221416113,0.4777815660987667
6,3.73611767484472,0.5699389025966396,0.7101788653030889,0.019986898562134047,0.9515752746580195,0.5050926808512467,0.9861426178136566,0.9167691360875223,0.7819782452009386,0.372707707317005,0.9505292219571455,0.6286266335146717,0.903789781963271,0.14927515131082558,0.8888779504089701,0.42329475061851213,0.7885518289093205,0.027161162123141333,0.8436040441962471,0.5157550418270206,0.9356735089348912,0.5305636656430276,0.5602804300312735,0.045319244489419014,0.9444635046844778,0.5272677652196869,0.7214028857981687,0.025024516118689465,0.9743638251625293,0.8927523199535286,0.9694196410779065,0.8000204496075828,0.9118058511004921,0.44406705405243524,0.702848300265137,0.040564132586921084,0.5835224349592824,0.026045242987962076,0.6621278496185337,0.13416449166250766,0.6447189285881793,0.10392358948586863,0.9413972879567561,0.7647427885608384,0.9884821895488882,0.9537004045351238,0.6832993733617301,0.1375159788084666,0.7163153188690461,0.12869163337313466,0.7465101645610575,0.3060930085961634,0.9726802446092678,0.6401676151868843,0.8255592142130107,0.3868958870415507,0.5674508767292272,0.9414693818727511,0.521871201559228,0.9845840570210065,0.9117772274470224,0.9412777105310529,0.6144932081126604,0.8895780622598333,0.4311969592298759,0.8268213688413205,0.46627906658621554,0.5038698427151607,0.024764912256268014,0.9291479965130911,0.4874766507674912,0.9673076614037803,0.8674445258998356,0.9660387095802067,0.7713750066413883,0.651686920511507,0.1358365499155934,0.6527335473515249,0.10306602320262927,0.9295122939268619,0.7442067718877801,0.9881369412053137,0.9459711774537848,0.6799266181322035,0.12671674172097985,0.7443129792895736,0.3108344439254286,0.9678828996152257,0.6608605347987525,0.8477679369231508,0.5077606875878083
7,3.702996318481207,0.5184467160145694,0.7363685199088926,0.024063782659470866,0.9506475562587882,0.5102694119633231,0.9827380437652522,0.9102419235462931,0.8127360222909552,0.41376548805405666,0.9718560760142682,0.6554312496744413,0.897866440218256,0.11821483526979937,0.9247740673584949,0.5161903632399673,0.8098055672459817,0.027842877513606035,0.862555369322112,0.615802759965692,0.9483635606806288,0.6016987251225078,0.5360218057502484,0.04947963912232006,0.9300869008505039,0.5487501548300571,0.656154840017227,0.01770129170473272,0.9698098854400098,0.8719247619516429,0.9770466741862933,0.8232001065484896,0.8850881244799169,0.3302907976185286,0.7434419179225352,0.07370575743750564,0.5153886685323686,0.020351290310355298,0.593993486393069,0.11008925883137469,0.6822039364110758,0.11869699586138477,0.9318452899115602,0.7736559010219404,0.98631586250749,0.9454746338667157,0.567541502839668,0.0950860495857654,0.6474262976380661,0.08503407141000462,0.5819569049970145,0.22756970261515336,0.9771560926897327,0.6783682073146032,0.8107380543704004,0.3908807706553743,0.5249801744647106,0.9388918500353431,0.508601316463493,0.9792346494480834,0.8969773431622386,0.9699709839064155,0.6475811375282423,0.9260480980959372,0.5249818063713838,0.8492431705390009,0.572452909036585,0.46183458892048135,0.02334982758774512,0.9077377402637948,0.4753443114069516,0.9619209310398898,0.8435609329530092,0.9722834357954375,0.8177546895947729,0.5968263744487639,0.11914952635446266,0.6900339085072231,0.13848385399035987,0.9222473474139318,0.7272788953490449,0.9856386156417097,0.9310411242724159,0.5639442553881057,0.0885917556629782,0.5773866348617359,0.23190029018088776,0.9687757226882968,0.6659827025366672,0.8295011441871344,0.5133145264032024
8,3.661307115754262,0.5616261308894372,0.6838050493329996,0.02671536614922803,0.9295282236482635,0.5325868628078737,0.9712977747664227,0.8894945719150708,0.7402612478794862,0.20121583466195916,0.9806210765289854,0.609784906498115,0.9001403518199423,0.222571057435679,0.9206527139199288,0.4812649089612028,0.7275687422221766,0.03640571846046009,0.8423838624102038,0.5673705717396951,0.9524682442748562,0.5517873065591468,0.5497413394042798,0.04841487763473748,0.901911854241475,0.5161062186298306,0.6896173755900659,0.02843182326644033,0.9709923455649969,0.8837291071731139,0.9837995061288927,0.8947249634022854,0.9002839054803714,0.3770497736119756,0.7193195146712401,0.048228738742976125,0.6220835670203955,0.05399095439736219,0.6239572161907082,0.1811568086112753,0.697510237855558,0.1097968890129727,0.9344028625280116,0.760289599781846,0.9760228761170303,0.9219863515090548,0.6891899665064802,0.17142681658128103,0.6598319584145553,0.10232668311462698,0.6920832486497271,0.30126654218993554,0.9595438785881524,0.6288633643304885,0.8161161130675081,0.3902687160453321,0.5493876112432814,0.915534504727286,0.5326422682730381,0.9678880042488243,0.8791187724116422,0.9769916497891159,0.600566444083854,0.9210248909805275,0.48197244169540937,0.8234417497670257,0.5152283167114589,0.4923500811765009,0.0258519292522358,0.8825892683392279,0.46386595171217126,0.9616458190412337,0.8481633686100722,0.9803686501120051,0.8957120569207037,0.6243563157339601,0.16514616042035463,0.6826845906902086,0.08169209830318253,0.9259435681095448,0.7265387105251788,0.9767034390375922,0.9073018423717569,0.6842511068298354,0.146032679883402,0.6885414614192299,0.30462691332653075,0.9403747598566811,0.60953035807069,0.840293116241175,0.51149939453573
9,3.6246172736105944,0.5611855246152039,0.7171131663367688,0.02622509640294355,0.9325628426289779,0.5524390583243898,0.9813197989953787,0.9034834922745394,0.7020776389858929,0.24837269043629406,0.9705431093329762,0.5818903384828702,0.9089171839414891,0.2926593464307588,0.8724731440511165,0.4746437854876231,0.7317101520332385,0.025906581016364075,0.8261862746262484,0.5995943379089708,0.9455673373466787,0.6055618087684345,0.5720584791038512,0.05187547016295779,0.9172364112645449,0.5050105442871122,0.7421698939077906,0.02765029508944252,0.9713816725831285,0.8841557825004682,0.9791822575824277,0.8937939390328825,0.9338093463653425,0.4719806661864363,0.7906575856438359,0.08112250490736149,0.5831175296337681,0.028433912993267352,0.6244521717524905,0.17034511211540931,0.6623036097334731,0.14412553133843245,0.9249412812941814,0.7727327585648563,0.9763135931287414,0.9273875389649296,0.6067735524064366,0.11713372915912817,0.6828544979018216,0.1319354177846102,0.6546851140458632,0.3077637349279916,0.9719442293002919,0.7111037719345626,0.8147058413048752,0.40528181713396294,0.5517666754780157,0.9174031724172639,0.5380668412176443,0.9784893973442723,0.8848517391689054,0.9643717509142979,0.5640582902819735,0.8781967531626442,0.49125334517739677,0.8052869720719381,0.5429633774031152,0.5044329241579548,0.03356353239560765,0.8862778922364385,0.4450317758532227,0.9628756258205325,0.849985889770054,0.9766719781213272,0.8874791680470396,0.6253936503631377,0.14623468862471134,0.6387263242375603,0.14997892245912425,0.9140329739636235,0.7387760121952397,0.9775267374446808,0.9105497134604192,0.6044087137967115,0.11175733027069927,0.655162539008203,0.3047634465113021,0.9586836680738462,0.6647642096621474,0.8279963170709019,0.5165048926561626
10,3.594751636453359,0.5447655974621078,0.6901153252084928,0.021628944235352318,0.9066309442294006,0.505285205448461,0.9711409790252514,0.8868731430776029,0.6688953654407078,0.2329538150761871,0.9572050725401754,0.6068454999660162,0.9326881156301018,0.3097779777230908,0.8963917916113259,0.4980794251991772,0.7219147891707942,0.02627115851877581,0.8225150920702747,0.5636071517714814,0.9527240942648654,0.6281569787677956,0.5693161585907613,0.06434497767570821,0.9128241370802754,0.48909452560657785,0.670194675966976,0.016779294212620248,0.9785649102579073,0.9081248026378617,0.9793705677614117,0.8914624872151126,0.8918027571324824,0.42437644571860633,0.6833448653123984,0.05892526128296631,0.5736858126507328,0.05112165245711192,0.6127319455199245,0.15141297265673775,0.6458541256709247,0.15783624399506163,0.9268966502501653,0.7839364648206517,0.9776959169189638,0.9204573925518743,0.5859277045107033,0.09329603135598795,0.6804162742964093,0.13519563599487355,0.666032427485624,0.2959200456573481,0.9427919940884018,0.6475700340570476,0.8006797112571328,0.3988205218338496,0.5437483478720592,0.8885264661678215,0.466911674525476,0.9678282618045487,0.8728773343399848,0.9520722470550067,0.5851281065038271,0.89682030136868,0.48034954765712523,0.8034259669523219,0.5044547410404161,0.4965701854603867,0.029636899994191737,0.8857424265821974,0.4227606183116795,0.9695241782647896,0.8742512383940051,0.9711900672030859,0.8571410162295027,0.6161348619775185,0.1304974705509933,0.6287528089887641,0.15113487242554965,0.9169951803543679,0.7427859899980856,0.9777250113905981,0.9046908337345878,0.5804417716479511,0.09692601683836419,0.6619368705293751,0.30161986984252903,0.92449940776978,0.5863299308666898,0.8211366258448246,0.500468510078313
11,3.5643959491937256,0.6037187169545294,0.7570130467645997,0.02457040561440304,0.9632541717969249,0.6267728128368726,0.9889900680618635,0.939049256372368,0.7077037754995545,0.22717335674390005,0.9791998255457752,0.6633640703035254,0.9359251871770052,0.3549550208862332,0.9139395668919099,0.5258319081696926,0.8239806032179432,0.03790889424652884,0.8932142756085735,0.6358457786270948,0.9592637400835038,0.6625250403870687,0.6288634857170019,0.06640319497898448,0.9507781671422977,0.5751651682187819,0.7971834474760526,0.03573600273203637,0.9799260398516487,0.9117719096604953,0.989222395330365,0.9126651253562745,0.9637930472368393,0.5591900469149518,0.8362213220050531,0.12234574176200357,0.662685563162016,0.07223033119199965,0.7147709994459518,0.23658336561864776,0.8034053836243183,0.21111753656252252,0.9475172071230283,0.8130452837028462,0.9916262794627997,0.968701692081785,0.7192346207404979,0.15322307434006394,0.7638543491461534,0.2026868369319038,0.7726814308745353,0.3593740303742339,0.9861442028012511,0.7837140766062455,0.862707392376441,0.44930576773928704,0.5720327782183452,0.9490295509707348,0.5800721304692256,0.9862856866407124,0.9274314439047455,0.9677508539375981,0.6383561814498968,0.9153963559431803,0.5131866092236064,0.8773682785818154,0.5767320881035087,0.5449949747880392,0.028303391873705758,0.9309665709566275,0.5163413346567425,0.9694399353525481,0.8669661285927458,0.9824926041446926,0.8700402808295237,0.7038612894152629,0.19310437031670924,0.7802459871589085,0.1932643467497854,0.9294686177434991,0.7529734479500433,0.9908237193238454,0.9537106527703808,0.6978263522529713,0.13922081531256011,0.7634044892331848,0.3408547248107322,0.9804139615256723,0.7363949761286953,0.8731105767480807,0.5516845576964129
12,3.5368750723698854,0.575079309129362,0.7219029417787182,0.02888447974891448,0.9472054042638999,0.5635911621045303,0.9863769805091718,0.934112700555233,0.7267342189223768,0.2281581152263909,0.9730963950791016,0.6399168809289278,0.932798629430893,0.3424483936539649,0.9506339756393407,0.5395265113595844,0.7351709475766401,0.025899581365963736,0.8534046980433145,0.5919707217765748,0.9537348710605338,0.558679805441216,0.580571469869922,0.07537602143048407,0.9163892755552865,0.5343148910263409,0.7640045797830867,0.027908415435248343,0.9812127999185551,0.9212010191710293,0.9902287903090653,0.922708318160276,0.9388222966126303,0.48202855727273086,0.7520788117133367,0.10265375522475198,0.5885910506805709,0.06004175368702079,0.6733383987459949,0.1900550972545402,0.744283275046911,0.18856775530392877,0.9506629957559879,0.833605182346961,0.9797351166850041,0.9419838385583196,0.6366773040447066,0.1340224493719946,0.6960612625319222,0.14165167711497298,0.6331306308683965,0.2696533025548527,0.9848023109297874,0.7596483391970169,0.8304480550521214,0.4245618740489142,0.5504449731253855,0.9292039447045932,0.5379336107942005,0.9841912454658209,0.9274640988397723,0.9627412124458778,0.6189954156480401,0.9476222961012046,0.5263434842052442,0.8331861162852168,0.5192191849199479,0.5147380447200914,0.031027482073806366,0.8869665274330417,0.4616670695152963,0.9717899283206606,0.8866849955573214,0.9843082929009834,0.8910348300193569,0.6698070799304864,0.15189702924363777,0.7267387640449438,0.13916463824416472,0.9302477217004481,0.7531220417114025,0.9786202348715504,0.9224411491444949,0.6194702021202318,0.11647104579691717,0.6211933520608515,0.2624182030632636,0.975667553649205,0.6960149405172041,0.8460307822972004,0.5276187012058794
13,3.5153573444847384,0.5997532604864293,0.7182944154993844,0.03382878814133408,0.9489319860842751,0.6167174000211892,0.9813100643499945,0.9076884339701953,0.6834425962601458,0.1893521709824415,0.9689543565582495,0.6385749337644995,0.9582550556705317,0.4035478486197312,0.8448964566813323,0.5249552930956723,0.7476332170194626,0.028904729205013874,0.8411061847358133,0.6446687167855227,0.9349516794504428,0.5712600854491534,0.5831860769051394,0.08515087305001978,0.9301068986980344,0.5388280525725015,0.7100240107865573,0.030137907329883654,0.9789148130507167,0.9045903788447276,0.98750100015609,0.8931273551054679,0.914936338435463,0.33878965179276915,0.8012854049827349,0.11572066733975153,0.6073909793860343,0.07574422010194223,0.7046687346679539,0.21938155720004565,0.6915851037398232,0.2130948339378401,0.956259151926671,0.8351103620682832,0.9865946796545666,0.934055291994825,0.5713351331549439,0.11424187412715243,0.7614703829273192,0.20199538862292302,0.688083107064356,0.31626398434590297,0.9807511588884277,0.7384028329079037,0.8262257302590178,0.4274666781298728,0.5711516433165917,0.9268277199909413,0.5595323328066393,0.976232408873833,0.8871812753254231,0.9530692710730458,0.6064963277015886,0.8392263935063253,0.49145544030973226,0.8197520826671523,0.581491374355781,0.5096041679193904,0.02681359855136911,0.8992604756876831,0.4753294429173374,0.9679515607247166,0.8574940427798289,0.9815084782368485,0.8723299977563197,0.6903293227455826,0.15246867735123745,0.6805200642054574,0.18406100263040753,0.9354309114866102,0.7654823560215545,0.9851879393318648,0.9032304290768589,0.554977883409256,0.10147858976329303,0.672076953760067,0.30115086748240366,0.9699905539085248,0.6787040199555711,0.8351216367204561,0.5277937359240841
14,3.4857518897047055,0.5621548584185172,0.6829799255265094,0.026011862565837002,0.9024310990936479,0.31651208349560145,0.9860767686247917,0.935648740565252,0.7070246582815334,0.22418071996296776,0.9758669677846863,0.6489053534614704,0.9367779040276376,0.24085103698118582,0.8908511065103047,0.27394414605082035,0.7440343905839504,0.02771791622282184,0.8395714414468545,0.5249036218481585,0.965462637434702,0.5570400548124838,0.5853415733688428,0.06695529593017403,0.9373189075471181,0.5102554963803814,0.7529425176703063,0.030134103764648163,0.973786461449542,0.8982329161082281,0.9764083904612064,0.8896734915877111,0.9124214063200532,0.469960495235301,0.7977535310525642,0.10469452335860324,0.6302637297055896,0.08911788161952604,0.6470451027152498,0.18970465943157588,0.73327598654235,0.249304828589617,0.9436354425111857,0.8257596822589406,0.9732105040885236,0.9224475135872459,0.6807370508409785,0.13423306958107467,0.7125026393957846,0.1846698178678866,0.6648916894088908,0.2983060539727746,0.9640386005660835,0.6773908034256486,0.8275634781907264,0.3967906218717668,0.5342320909331219,0.8799691977224844,0.3152097972890379,0.9838225568330737,0.9268410528136762,0.9575561486201726,0.6120136825246861,0.8919688269073011,0.3077989080108789,0.8245078784222986,0.46071209007105063,0.515240136410882,0.025388485521402097,0.9200993802492479,0.46380924960949665,0.9609623185645726,0.8582759675898078,0.9703578765231193,0.8493191854845411,0.6246198480145456,0.1414100061646336,0.727691011235955,0.20099552052284625,0.9209253301226862,0.7391950299382609,0.9710200289915645,0.9035065540836472,0.6719935540791155,0.11121153941682921,0.6517771400835133,0.2803772636191762,0.9429496569269907,0.6257754407132081,0.8384663056067202,0.48886498583582366
15,3.4713845193323047,0.5741980965808953,0.7102201341331776,0.027599247402836306,0.9557118411240416,0.7007339994354087,0.9743532347399388,0.9120897281058549,0.7100527804741236,0.23505213824858912,0.970735847269849,0.607589472496722,0.9478782128016414,0.40025639538077695,0.879277734726681,0.4123647803422053,0.7985511586805792,0.045107616190438946,0.8669277292359802,0.6867354441789384,0.9606916200969396,0.6486448565084849,0.644560002586912,0.11793554459832342,0.9269275050178872,0.5910148965964321,0.6698121360029499,0.03556557506418529,0.9844602405287124,0.9351740485405776,0.9833842080238566,0.9179512322731689,0.8732187091851682,0.3937983821427275,0.8535806630723689,0.166048826293906,0.6328537430106004,0.10146607366078549,0.7078932220925451,0.26695217317343034,0.7133589967143781,0.27083611904466415,0.9652162882771722,0.8555451779717169,0.989420438492039,0.9619689775998573,0.6117169638306392,0.18224254252924144,0.7570573196347212,0.2287896156394635,0.6555751235922302,0.3096184384941658,0.9718536168078618,0.7672571343047367,0.8352034411597307,0.4530130167776015,0.577848268569918,0.9410330258062007,0.6547281460456273,0.967978913774707,0.8959874646866617,0.9579665452632736,0.5979395374600556,0.8900177021717542,0.424197446534054,0.8489682140229975,0.6144236762786011,0.5593056617388092,0.03816662339591541,0.886647633467796,0.5011849468883578,0.971156334782531,0.8854445211153659,0.9768600136616139,0.8767270535266245,0.6770087783403147,0.20491213700624542,0.6958643659711075,0.2136940885045773,0.9483360928954256,0.764608428000118,0.987025794812681,0.9419888595694913,0.5749037213089501,0.15233782572769394,0.6451116456535696,0.28773274801031545,0.9581864438853106,0.6903170805801657,0.8428981804723152,0.5465244114581169
16,3.442077648456194,0.5712900951709552,0.7296083948257861,0.036180796544750815,0.9530532179399079,0.6431808545374814,0.9810864333993526,0.9184693615754445,0.6364595347297544,0.07921651206441857,0.9572765801574934,0.5221795825592899,0.9477199723114497,0.38444422180035565,0.9119949070641955,0.4582068935928862,0.774698381971209,0.0339672392050759,0.8953678715054446,0.6814207439851988,0.9390664461820624,0.45290182487606906,0.5813269889385031,0.0778683163842315,0.9304146686924432,0.5579844667374991,0.7357885981134784,0.031291716946102194,0.9844285298558785,0.932277178479643,0.9882948861392712,0.906064549124867,0.9492308294875719,0.5055610481976059,0.7634783865742794,0.1284845478790646,0.6342684083304989,0.08112877536014987,0.6468602196596973,0.20602734791141286,0.7079717416393974,0.16075122476217796,0.9616261675891807,0.8076835471320847,0.9915846795013896,0.9643840509372247,0.6203594751164991,0.15746013638903555,0.7227752420702992,0.21501231346257277,0.6316494136848649,0.28734401997949355,0.9807089427149425,0.7438252619839769,0.8291191891613405,0.42205063586185043,0.5567010309278351,0.9372731005643464,0.6000829292945218,0.976655191332654,0.9016808966625163,0.9440090174085782,0.4874250391066372,0.9113470920944692,0.47733449747809914,0.8750393335592573,0.611178019799733,0.4820002920636011,0.021853718258650415,0.9001225774834913,0.4812182023554754,0.9692127090614131,0.8775472286821808,0.9790420421099157,0.8749805541448422,0.6227181463399933,0.1316858125125167,0.6651900080256822,0.13377853494448935,0.944420996568946,0.6789660248256804,0.9901804551365505,0.9516364437895548,0.5913585248404025,0.11339613087839484,0.6140534975293981,0.27215059864902474,0.9696455729914986,0.6536503375330421,0.8357667848193874,0.51678531055721
17,3.4176089738429662,0.6015744330865939,0.6583897698804531,0.02332433595969306,0.9128188084221425,0.5352164629619028,0.9875373347285439,0.9373046757639243,0.7460057759220547,0.303170747345481,0.9826775412798374,0.6839979638023622,0.9496573223701003,0.4927612450160298,0.9291551969165346,0.4808726768356092,0.7336691521485662,0.029382458782652797,0.8717894395506736,0.574736678710939,0.9070784625108951,0.4599023094210368,0.5961653926261176,0.10606523595838332,0.8396515808394501,0.4159438599054551,0.6834550761842835,0.029342162801488676,0.9853211123082738,0.9380600037014661,0.9828897718850381,0.8854798490919108,0.8327857330877122,0.3872880862332007,0.7604160711762947,0.12272727447558332,0.6025477678138053,0.11206013262407735,0.6851131359993071,0.2902688178376727,0.7125052631332377,0.21593444073285487,0.947172784600124,0.8046614034865154,0.9739682595397628,0.9369567846254336,0.5953845156181738,0.13049018472996246,0.7497704880251685,0.2647577626150762,0.657301693320231,0.3200810004790698,0.9457209828832202,0.7076630282909656,0.816498016645,0.4303249839303364,0.5853379152348225,0.8905158037530052,0.4685437972491535,0.9845301625579282,0.9196188881880878,0.9714196328580313,0.6402550604361861,0.9245585251068605,0.4782297108644481,0.8474776015793648,0.49006481856029704,0.5059950349187805,0.035012853912034514,0.8011457583963902,0.34872662975851915,0.9679251599542333,0.8766277388726105,0.9701108248199379,0.8567592995957628,0.6600904454087937,0.20726602349546602,0.6925032102728732,0.18798512004378287,0.9228579658997846,0.6919058141227573,0.9692194652584909,0.9088820084788073,0.5708048998601584,0.08513153877369077,0.6363166192542143,0.3005249606832047,0.9099930770195206,0.6276068585792227,0.826591511682398,0.5076963201008768
18,3.395218279033693,0.5822465045235578,0.6408140513730576,0.025215985415324372,0.9206799832582137,0.6478689296126743,0.97998156961304,0.9072236487985793,0.6002214272713725,0.09622472244048838,0.96630121938056,0.5850403301335788,0.9501560839508931,0.2652607913054815,0.9139905407194755,0.5025932183378681,0.7151814659412095,0.02751457111178673,0.832278301758264,0.5132057725803516,0.924761860925364,0.5701714735365876,0.6117148145798196,0.11165518133902583,0.8869785516243234,0.5456565581967456,0.6882656780865682,0.027558368648742143,0.9829210393742651,0.9219797529165099,0.9917966516438933,0.9358676940527164,0.9474108367214179,0.4609153679904052,0.747630753258359,0.09155536226595702,0.6158594190633622,0.13285195445063527,0.6883213809047988,0.24349861898596642,0.6743324877716166,0.10058472437569568,0.9420468391731026,0.8252604279892017,0.9863314732679775,0.9552988748585712,0.6169044547291394,0.16409329990283325,0.773773762070896,0.20160193886910205,0.6743675742531439,0.2886443578289136,0.9713199012243802,0.7394241613716332,0.8170900816130197,0.41872177258905285,0.5504449731253855,0.8965438655085407,0.5852284872341188,0.9763911018181375,0.8841726690723832,0.9514977456478554,0.5459875188727824,0.9110391390699882,0.4757272588682855,0.8078451869345825,0.434128882995931,0.5086946904555333,0.030611807656622147,0.8356852809510238,0.44440772765343484,0.9649380799622943,0.8548313570167823,0.9779791233462918,0.8803032322721431,0.6581849767451206,0.14332070480623305,0.6473107945425361,0.07955443590290698,0.9139770006024204,0.6710174993583498,0.9857004239444036,0.9412062980217218,0.5847359513134913,0.13032849169831842,0.6541812383512509,0.25562733261732207,0.9568859514892974,0.6313849484995443,0.826974409417673,0.49923991578418
19,3.375221507331625,0.6330630948184702,0.6754993338844271,0.023777813153024296,0.9609075509187355,0.6742660416454974,0.9860355108637018,0.9195273090039603,0.6574653250568622,0.21532528098742348,0.9678034415355969,0.5828639395894,0.9627855558533072,0.5590870798458489,0.874587541996543,0.47358533749622356,0.7260312012612377,0.03271274218321169,0.847340268239039,0.6000349239168372,0.8996884079634309,0.5592605662735752,0.6069917875745395,0.1300749215894071,0.9089748275113628,0.4705662706935819,0.7111315188722531,0.025527276079231213,0.987090273746275,0.9445113802669403,0.9773131470471776,0.820913409533583,0.9379258117235131,0.44771759464368416,0.7978062298970663,0.19548906230188468,0.6207555429025203,0.08337770007690173,0.678341019518701,0.25397021957207044,0.7242227052938722,0.21876678807335664,0.952454435404534,0.8555180863028842,0.9820173133246771,0.9385921067321149,0.5597091615698266,0.10793331048902124,0.7742526803956371,0.2416906004524359,0.7110971704128092,0.33870126222388774,0.9730283779830318,0.7156459217140243,0.8254329284904107,0.43959372864769275,0.5840162128821923,0.9374493872714421,0.594712991276142,0.9817334984590569,0.8974461544910333,0.9489362023193473,0.5423865010188568,0.8754274426838219,0.4414294780697213,0.815271283259462,0.5032598917066793,0.5017248932679339,0.030994529879130872,0.8608304049074517,0.37009448236450176,0.9717016429463978,0.8844886447761324,0.9568902625842551,0.7783411853606325,0.6266176079116815,0.14529941099076496,0.6721825842696628,0.15432319488000365,0.9336495168622579,0.742876664389402,0.979536282655202,0.9192647553937876,0.5411626664746094,0.07796801812201794,0.6839361683181164,0.2984269641198632,0.9524541537493506,0.6297906218762164,0.827468999871253,0.5006939680446804
20,3.345923554139557,0.5548701680178593,0.6539378553353709,0.024134036981844534,0.9495101400409041,0.5176013099014152,0.9842987038858843,0.929201658433139,0.7711971164397162,0.26115805234162504,0.9824904252565342,0.6989514638811916,0.9691901947461047,0.5221497193343253,0.8719020940620845,0.49034535813840796,0.7004231498214836,0.035206755585931976,0.7928115292901967,0.5493135958997827,0.9098735312871287,0.5074556274635619,0.6546741296765115,0.1279543154590987,0.852712876066665,0.501909205789295,0.7375523212772724,0.04995382178407204,0.9849402664272879,0.9322705104719232,0.9929477686622737,0.9462757815490948,0.9496690613920712,0.6054315285049002,0.7853850728223123,0.13964520619831264,0.6157968624290546,0.16003601762479652,0.6990499309308,0.30767570118469956,0.6151885520643328,0.22112894187032778,0.9657830663725464,0.8824463804441036,0.9860870584097507,0.9476713543828843,0.5791940849351974,0.15398077841781058,0.7963581408654816,0.31183118426520184,0.6595440205863,0.34340107498863404,0.9921561949511324,0.8435043208461925,0.8251028518474768,0.4619474500670221,0.5333509560313684,0.9267370745957271,0.4708711691773605,0.9805463582760364,0.9152284509436054,0.970667283923338,0.660180480038518,0.8694650490047926,0.4521329964843135,0.7671092817321647,0.46682601748819796,0.5395832080609554,0.037728028195053186,0.8076908268602463,0.3866870135456679,0.9659553081369172,0.8469732493244213,0.9840207460647521,0.8693212772799048,0.6605054420436167,0.1926309598590482,0.5861316211878009,0.15995634909466971,0.9352351460692706,0.7584660048743507,0.9826227101574598,0.9256401589859097,0.5405986984121268,0.10888712773912308,0.6319160670967946,0.31175157728700986,0.9789978265423489,0.7534201758944596,0.8204864155102718,0.5197938147632258
21,3.324689985820289,0.6409058864998237,0.6955084597941741,0.049593478221749906,0.9379104688857522,0.5955643860473139,0.9876437289370118,0.9473092623754173,0.7474387545765754,0.30159503282019584,0.9896437168494497,0.7133760411968343,0.9808681732273777,0.562108811465357,0.9058436988848092,0.4807900875863921,0.7703537298229449,0.03632146108619703,0.8558803835749089,0.6180909510021895,0.9566662161325887,0.6453055598683737,0.67804238088117,0.18838169819037012,0.9034939648632777,0.5532351516760079,0.7520241684189192,0.05206670893917894,0.9887754317966694,0.9507077333409779,0.9922673430092949,0.9251108103468426,0.9089901870450264,0.5304656225776676,0.8477480443274819,0.2499215171165068,0.6865756624863516,0.15092659268173744,0.7474578579861537,0.39876481899489735,0.7226322262240402,0.23418780171050124,0.9633511195097493,0.8885189246799778,0.9836284412126387,0.9531772260093302,0.6434660332022717,0.1913263578755663,0.8308743002977116,0.31092599018597783,0.6784647408513096,0.3557335582678325,0.9760550931067814,0.7931811241068877,0.8512155509963246,0.4875648733988569,0.5915058595470967,0.9163754766746809,0.5276997859663,0.9836608734438389,0.9279992255708283,0.9837150947280604,0.6835433148739006,0.9105207029057467,0.45678422442388333,0.8282045558577966,0.5134494363040595,0.5599709654420039,0.035080068988753516,0.8498867340528954,0.41357082579871224,0.9684668997719951,0.8698852136162503,0.9799046826186101,0.8575047849524524,0.6974005891570985,0.2370158087756001,0.6920373194221509,0.1604054470773804,0.9284507789202059,0.7721233578581471,0.9796167737542895,0.9276031701715334,0.6011935556795925,0.12330814367992392,0.6472071130268953,0.29365933955721074,0.9515465346550074,0.6822776130815796,0.8423849156319292,0.5301193600435322
22,3.295225423030295,0.6229878980143344,0.7289293234945408,0.034445809606085946,0.9017662135337519,0.6008927928908278,0.9682920072770831,0.9064949150819229,0.7383735287129077,0.30229815318313163,0.9899334327953955,0.7366840286612197,0.9574666814678325,0.5250416616350947,0.9153804816064476,0.5808801930209795,0.7399675512679701,0.04110637657582036,0.828485795760212,0.5930493989372949,0.9305809087877853,0.6502295141519687,0.6357019712146877,0.19908050129475022,0.9304534520330021,0.5628249814668715,0.8060646236386616,0.05440696349521071,0.9902766550168863,0.9570569317361781,0.9923958540280301,0.9386752542027496,0.9367781552729946,0.5445200503821152,0.840599662911381,0.25159727135922155,0.6556380602784555,0.17700704225477387,0.7225584329788408,0.3343434853651352,0.6941631539627713,0.20711765265134796,0.9755066760982173,0.9029562395643014,0.988022865979949,0.9581025803065241,0.5825773855031309,0.14186200267425694,0.7881868492625808,0.32619874569147356,0.6675826542306924,0.31529074225237474,0.9803899538400934,0.8075594013018998,0.8417720127290115,0.48652779575936655,0.5715922107674685,0.871813971629421,0.5375186849801256,0.9636738027986311,0.8785883478933371,0.9788385694160456,0.6792022072353819,0.9079283062043954,0.5378626272490926,0.8013171305357951,0.4985410848880999,0.5061152964016046,0.029059715598236974,0.880358266070561,0.4321642181492324,0.9721281725965593,0.8819504049174061,0.9746447101427438,0.8842088318583591,0.6845035171121759,0.20966934203561538,0.6483013643659712,0.1338717533767836,0.948210930240513,0.7692919963828477,0.9839063585752928,0.9309653603912915,0.5544646304598772,0.09074956927903947,0.6463426355594241,0.27137976458552715,0.9562224667459421,0.6777865259943887,0.8299231330534346,0.5276756521759229
23,3.2653641492047836,0.6194336740688521,0.7001520563632364,0.03136748087971815,0.9291863350206284,0.6030537038974707,0.9805354399145336,0.892074996134866,0.7173648843846849,0.2983477840942565,0.9791176519091019,0.6587823735841013,0.9486098806267116,0.5484290751835325,0.9029560807508233,0.5956878392860192,0.7067124314147684,0.03468871613646336,0.8206936859060796,0.5782383494996991,0.9049906373066231,0.537920718036409,0.6465917383660876,0.22782843341792045,0.8785464700162046,0.4870279261917629,0.6816647525594147,0.03615933541776621,0.9868405824971036,0.9504060362869788,0.9621813361439612,0.7418015184566557,0.9149687441400048,0.42266461087144247,0.7871343196296624,0.1952734914566168,0.632195659866035,0.14954002309597042,0.7003458961801463,0.30077955862318195,0.6602481063234632,0.24265242351910132,0.959979060620778,0.8138463253190751,0.9774653112480925,0.9287911278153502,0.616500507408621,0.17960977609522602,0.7389538904580828,0.310019752836617,0.6465730795643251,0.30083313001252,0.9598111809946742,0.7393843392978213,0.8207815276774557,0.4540464940556363,0.5719446647281698,0.894622869404291,0.5054513203577862,0.9758516255527008,0.8649012979793234,0.9655811141015845,0.6154085459839408,0.8953082768446959,0.5177884107891785,0.7918799441786094,0.4690277888204935,0.5202936957212683,0.04181308746595823,0.8139264175192475,0.36417209668574363,0.9648266876754915,0.8664655362144023,0.9332046906548535,0.6874109880296145,0.6579746531858683,0.14180197574789236,0.6219193418940611,0.16977080852803078,0.932588849936832,0.6793713966849202,0.9703210487177917,0.894373064191207,0.5703545656605669,0.1192869064735628,0.6180068281846793,0.234579588926727,0.920238932381404,0.6043017153915886,0.8154312213508716,0.48599528301689815
24,3.2433220319386,0.6135001762425097,0.6652759766113803,0.04363138420828602,0.9484714201666907,0.6871272445190345,0.9792218942839965,0.9142587169209092,0.5596919825148586,0.07426952047215518,0.9498484238403118,0.46930522660807716,0.9629010190885545,0.42792310634668335,0.867560769836927,0.565627255551912,0.6991162641570726,0.05188004522845982,0.8102162119628477,0.6172080226103198,0.8954843554350573,0.4934402689744326,0.6139740272405096,0.22123491637014275,0.8469061661382281,0.46287899183000647,0.7105465902149711,0.032460779666562994,0.991858396521037,0.9645429020253866,0.982036019475961,0.8224075991083377,0.9128031415809826,0.41522697648011936,0.7978034701072046,0.2175514392719321,0.6217298875150555,0.15547465791288456,0.6606315850035995,0.2585475782780186,0.6705292967197604,0.12762579496962415,0.9386445459298215,0.8045322234011391,0.9792631002144535,0.9345407914215961,0.5922885835335664,0.1775837296649612,0.7462623604301396,0.24536276954747022,0.634104917421397,0.2720659548116806,0.97489629360226,0.7144057504739616,0.8081564115210248,0.4296582171797728,0.5683320116309807,0.9246442239724758,0.5896913601558065,0.9730134274964632,0.8862565009864137,0.9353208962221952,0.44654590603275657,0.8540777600276326,0.46986010915908943,0.7752630588611679,0.5001596633403405,0.49028759674606787,0.04219392529817865,0.7922465452107526,0.35398840336495496,0.9681124606945428,0.8672466267126782,0.9641658881555817,0.7676544031259248,0.6029577770746065,0.10969754678838409,0.6447961476725521,0.08625173276840492,0.9028514469820605,0.6839096550253165,0.9736972810992869,0.9024530879188152,0.5541473359061,0.11292966245920968,0.5980991107302913,0.23317864813692893,0.9513522395335671,0.595996961784115,0.8065645747740839,0.47800088706608235
25,3.2132953984268737,0.5935847726471625,0.6205741865679754,0.04665786012353771,0.9132906582983151,0.545248183985929,0.9817074269612808,0.9297589189584433,0.5540379542174285,0.12384907884525166,0.9514507785225912,0.5466267696973109,0.9599337624257321,0.6326045421918072,0.8310972192416143,0.4791080522135068,0.6783153830779922,0.04763190403319418,0.811416088753006,0.5821171739290167,0.8461789681455987,0.5361649645236576,0.6232779337020159,0.23791529404757197,0.8669666959976434,0.5415448110118235,0.6966042189175723,0.04141958860623446,0.991467450841926,0.9663309329695391,0.9716807926207164,0.8508181627176087,0.9352700318564924,0.5845789904778798,0.8332215618439338,0.23493057297183703,0.6505000367329183,0.18766380741796912,0.6269162839534839,0.2952757878914399,0.7128390585096447,0.1846689790685227,0.956708357994808,0.8826364382134154,0.9797783415102198,0.9409115728131693,0.6077636363222658,0.19540672783808022,0.7008464410674675,0.32298825574509993,0.644996247898952,0.33249563479697375,0.9770907787783587,0.7353264413554745,0.8047665497984597,0.4617184402478575,0.5489470437924047,0.8868756905634998,0.4618631863337605,0.9781331356715689,0.9061959239664523,0.935247332017621,0.5280236569210849,0.8183064202754631,0.38919583712447625,0.7750067832963459,0.4584694633061554,0.499776227740888,0.03797556713721688,0.8120103335036613,0.37559303501446134,0.9637780181295937,0.8590732769084383,0.9397055721303078,0.7739334907358582,0.5837608865985595,0.12940640946878584,0.6720020064205457,0.10110933348686094,0.9212512760088843,0.7298653991398115,0.975356653106255,0.9109279486937427,0.5680791875979042,0.11453555051302153,0.6034637192263124,0.2710286658846141,0.9504699294229785,0.6282113250211998,0.8052014482318993,0.4797130043534963
26,3.1830181153873034,0.6513629420749618,0.6368358119910914,0.05204400891179113,0.9288769877637639,0.5934128850250572,0.9842237404690952,0.9252886329699427,0.6964838148066226,0.2913203316348034,0.9344593880459628,0.5997092115329201,0.9626300729051696,0.6458158883077575,0.9013874056131219,0.5415987663570478,0.7532923628340652,0.05123464981949574,0.8780703468110764,0.6543174725130823,0.8880534680296811,0.4546118839308542,0.6936648912589101,0.25860851625261305,0.8614150126410164,0.4852644804218633,0.6961449035486985,0.044935232373005896,0.9937051217153605,0.9736098790263295,0.9870026626097408,0.8687956638490134,0.901496285816126,0.4413638937235565,0.776375541690897,0.2627148739244527,0.6275978789980777,0.1834639450036151,0.679264758807229,0.29766307572978823,0.7228447745558273,0.29141849992135005,0.9629136265461221,0.88497793141378,0.981308782195782,0.9474868444579717,0.5742917895369157,0.17726307811323505,0.7480599593211703,0.3315802730970905,0.6123919846001956,0.2953018314101097,0.9708352711127552,0.7611518701691116,0.8212933324701719,0.4736520623034476,0.5849854612741211,0.8960051401943985,0.4834529112801972,0.979325392838137,0.8986085869559114,0.8948301340539213,0.5388366811973385,0.8886703941971417,0.4614499925610795,0.8456083513490993,0.5088473341850599,0.5461082525147534,0.03470355064633638,0.7823199243024405,0.3457934771738767,0.970704477361065,0.8737729836876835,0.9644314608886075,0.7949021446540286,0.6139489095822158,0.11969983753366596,0.6421986356340288,0.15961135926022457,0.930905550041457,0.7117222505600835,0.9762642087097277,0.9231921107456105,0.5197952989991017,0.09474407461270565,0.5770529855710287,0.24072747545853623,0.9297667913426142,0.6363087007031976,0.8098709942237337,0.489148341950971
27,3.1494021391339144,0.6659323228762778,0.7194113282622598,0.06457369508347532,0.9522881212968022,0.7400702173723611,0.9764401122695616,0.921742477623005,0.6994072392737635,0.17912334847152855,0.9875529896586773,0.7456615068875363,0.981544973036188,0.5565297573841529,0.9131511529502856,0.6246241059004806,0.769275567264096,0.05845330443293424,0.8830565464005399,0.7257999935809752,0.9492419481914545,0.6111765730642235,0.7860065046147204,0.35845365781231164,0.9372754668447092,0.6381168318097327,0.8400365087809669,0.10975026333476437,0.9927006792854892,0.9638996670722052,0.992855244764723,0.9519009961136504,0.9638892797071802,0.650951597822598,0.8733619168711868,0.297760869830907,0.7420119077897291,0.2563854329867904,0.7589167392697882,0.4015646370984288,0.8305429743446577,0.33727680349765105,0.9691592101486917,0.9017752704567212,0.983346615697031,0.9555777981705035,0.6766390891218873,0.23384697205207636,0.8220756576625027,0.35284668763005234,0.7590903885090164,0.4116779301373806,0.992807644528704,0.8652971966396468,0.875080223328639,0.5351860612410037,0.594149264252357,0.9215885877161478,0.6116394301271809,0.9676445155771611,0.8848267924015084,0.9781985877828451,0.6711006547579348,0.8928681835844738,0.5291610870749337,0.8405396397038005,0.5700507953966039,0.6061926073548487,0.04630540004956704,0.8761938122015863,0.4682320872284127,0.9658987136686219,0.8333541869763881,0.9695740288702046,0.8857946012525644,0.6792892193794011,0.16721051235036016,0.7655770465489566,0.20567539615954744,0.9254693493549069,0.7164277918302129,0.9768619843492811,0.9259166169503031,0.6188430152185351,0.11765035357137206,0.7001362866537174,0.301713515420292,0.9689992204833004,0.6909121504516565,0.8533671749029867,0.5391232107499273
28,3.1315356027560344,0.680619198684056,0.7640082082628666,0.10876639528675865,0.9224462716779653,0.6407904240798195,0.9655633817443107,0.8937889155637421,0.7529235415081961,0.3139239688794882,0.9708788781209116,0.6643255589305802,0.9857804162191551,0.728097327617265,0.9248582910981501,0.7096873199817071,0.7898587145737315,0.11026477646105237,0.8825368083725402,0.6983185308790023,0.9476940711460017,0.6638630843015916,0.7113307407769345,0.3237334840808797,0.920107830890615,0.6653534964823059,0.7719925293519903,0.13511968037742428,0.9929844459068952,0.966798031552403,0.991127089392917,0.9390618474767791,0.9622574413322179,0.6248871512515024,0.8451292665858443,0.27776783151048606,0.7175040419385579,0.25620628564910153,0.7864175586250726,0.4491072778870477,0.7949028381284609,0.2657932284165326,0.964491112492408,0.8996741223634976,0.9738352275869153,0.9442358777456084,0.6899188373743993,0.2660927784356545,0.883247534534665,0.47734626316029344,0.827864524445699,0.5219848080424805,0.9835044803831512,0.8074667806358805,0.8739678493257911,0.5520175095018802,0.5939730372720063,0.8800263872462788,0.5436913570388439,0.958219297699989,0.8604594129499652,0.9516898748707912,0.6033260248333848,0.9063496826561892,0.5768547249128217,0.841988229965138,0.5425133136539804,0.5576138403786519,0.03947763217845038,0.8520407330543639,0.44321291858373035,0.965604911521486,0.8362644918676898,0.9777044470562236,0.8597152730846371,0.70127258309978,0.19873375532237209,0.732161316211878,0.16010963065830108,0.9277317473837401,0.7339558549121419,0.9672379811650827,0.9158225257792443,0.6296261285863188,0.12139841727429337,0.7633938175443695,0.36803518276577557,0.9407123427630714,0.6781773115137524,0.8470858325752095,0.5301092392080865
29,3.103394031608697,0.6665197979085888,0.6659723644195693,0.07483769829866224,0.9089032747919972,0.5434482657104855,0.977748591157509,0.9297977489925499,0.7006305613858006,0.22890057271371198,0.9813255647649439,0.6770860816362742,0.9884300606022897,0.6983683848383417,0.8974709825512588,0.4515548504843102,0.7652595083419326,0.07642843313978182,0.7961445616147022,0.5432145845036418,0.9317812639605271,0.5474102578754941,0.774642555273312,0.39326772929326753,0.8838770127095323,0.6153272907135591,0.8113337668223286,0.10599907582461507,0.9928900249141821,0.967065720922696,0.9870610828242248,0.8864215825377061,0.9266875746551066,0.6281850049698137,0.8515024098879329,0.3063413499938363,0.7080098737241372,0.22549593608793767,0.7374812708732801,0.4034870869482884,0.7113224722599805,0.26772799038643913,0.9638363081730486,0.9089558007826548,0.9702949424334026,0.9364663715939627,0.6998406782437745,0.3058127237347814,0.8142815517845092,0.435327085479078,0.6761745886017921,0.41382830093992407,0.968367436769109,0.69835735889308,0.8496642416746225,0.5103505110498037,0.5827826240197375,0.8763353753805962,0.4577303135565007,0.9720106316298163,0.9073741816101372,0.9634195929770706,0.6279611011781867,0.8878364492034022,0.38788417030375705,0.757359139653374,0.393904036574439,0.5819955675053473,0.04682192690789527,0.8106037683892382,0.42025342701545043,0.9603000285367874,0.8164266710311273,0.955307813237702,0.7992498002091357,0.6565375468362316,0.17409486585946038,0.6600902889245587,0.15490008421558138,0.9231022132941257,0.7153885777055682,0.9612967780668402,0.9063297041082282,0.6436990223086481,0.16025444768761454,0.6194407921983311,0.27675179452947196,0.9265864255070947,0.5783979266623521,0.8222450896030727,0.48898268932218164
