epoch,train_loss,train_accuracy,train_1st degree av block_rocauc,train_1st degree av block_prauc,train_abnormal QRS_rocauc,train_abnormal QRS_prauc,train_anterior myocardial infarction_rocauc,train_anterior myocardial infarction_prauc,train_atrial fibrillation_rocauc,train_atrial fibrillation_prauc,train_complete right bundle branch block_rocauc,train_complete right bundle branch block_prauc,train_incomplete right bundle branch block_rocauc,train_incomplete right bundle branch block_prauc,train_left anterior fascicular block_rocauc,train_left anterior fascicular block_prauc,train_left atrial enlargement_rocauc,train_left atrial enlargement_prauc,train_left axis deviation_rocauc,train_left axis deviation_prauc,train_left bundle branch block_rocauc,train_left bundle branch block_prauc,train_left ventricular hypertrophy_rocauc,train_left ventricular hypertrophy_prauc,train_myocardial infarction_rocauc,train_myocardial infarction_prauc,train_myocardial ischemia_rocauc,train_myocardial ischemia_prauc,train_nonspecific intraventricular conduction disorder_rocauc,train_nonspecific intraventricular conduction disorder_prauc,train_nonspecific st t abnormality_rocauc,train_nonspecific st t abnormality_prauc,train_premature atrial contraction_rocauc,train_premature atrial contraction_prauc,train_prolonged pr interval_rocauc,train_prolonged pr interval_prauc,train_qwave abnormal_rocauc,train_qwave abnormal_prauc,train_right axis deviation_rocauc,train_right axis deviation_prauc,train_s t changes_rocauc,train_s t changes_prauc,train_sinus arrhythmia_rocauc,train_sinus arrhythmia_prauc,train_sinus bradycardia_rocauc,train_sinus bradycardia_prauc,train_sinus rhythm_rocauc,train_sinus rhythm_prauc,train_sinus tachycardia_rocauc,train_sinus tachycardia_prauc,train_st depression_rocauc,train_st depression_prauc,train_t wave abnormal_rocauc,train_t wave abnormal_prauc,train_ventricular ectopics_rocauc,train_ventricular ectopics_prauc,train_mean_rocaucs,train_mean_praucs,valid_accuracy,valid_abnormal QRS_rocauc,valid_abnormal QRS_prauc,valid_atrial fibrillation_rocauc,valid_atrial fibrillation_prauc,valid_incomplete right bundle branch block_rocauc,valid_incomplete right bundle branch block_prauc,valid_left anterior fascicular block_rocauc,valid_left anterior fascicular block_prauc,valid_left axis deviation_rocauc,valid_left axis deviation_prauc,valid_left ventricular hypertrophy_rocauc,valid_left ventricular hypertrophy_prauc,valid_myocardial infarction_rocauc,valid_myocardial infarction_prauc,valid_myocardial ischemia_rocauc,valid_myocardial ischemia_prauc,valid_sinus rhythm_rocauc,valid_sinus rhythm_prauc,valid_t wave abnormal_rocauc,valid_t wave abnormal_prauc,valid_ventricular ectopics_rocauc,valid_ventricular ectopics_prauc,valid_mean_rocaucs,valid_mean_praucs
0,5.198459209317369,0.5465231661705213,0.3659234149853994,0.026367565482817244,0.44206512954819643,0.14166147297409598,0.6601215457966938,0.02957234878865974,0.6729602199829002,0.14682753401497456,0.8313211536706059,0.5207384592832108,0.7562398265691485,0.23613122567735184,0.8904100774395957,0.33410053951901175,0.5389225665885596,0.022972339023083342,0.6558998438496699,0.4591093397888262,0.7640861645630885,0.05996850366405043,0.795551103265477,0.44888511492221667,0.8013387409296623,0.5885975809853852,0.8911569178385649,0.3742983709786752,0.455536908819021,0.032233952337004323,0.5682632892576577,0.02190318806365595,0.432256679376529,0.015219698261501897,0.4061286791070108,0.013271817001338726,0.5223211679871299,0.027027735684513048,0.5382750559825698,0.017096169827191497,0.7951237675814617,0.13584551890723046,0.5790861242651794,0.05435558510447363,0.630413114654651,0.06188913761058735,0.7947986157905068,0.9487716600521192,0.4766596229539445,0.051427396891370866,0.7535927238790107,0.13262403846005055,0.7574735981640011,0.2650834165455756,0.8313540932098881,0.18883095202927935,0.6521214868909675,0.19832632081030563,0.597985347985348,0.4263549658513103,0.13306519643684184,0.6648116978841861,0.1318513956627839,0.733062861969112,0.17360508104988215,0.8905279296978708,0.30495896466873573,0.6541818086988003,0.42315074847945267,0.782197147015516,0.4326248661898456,0.7960173027706687,0.5745567268432156,0.886103147256781,0.3616857157535983,0.7857571439969078,0.947362664714861,0.7413928939527087,0.2451001210060181,0.8063980582122817,0.19550869969999188,0.7424368143005584,0.356679107318657
1,4.661133799459377,0.5648423784443936,0.38660280375073397,0.028697604071007896,0.5179353273443889,0.16775575279198862,0.6402750187742363,0.023580307131808264,0.8135661015222428,0.25935105544978027,0.8926432373174279,0.5311983383129085,0.8423292514850091,0.3501042157622924,0.9078875879218877,0.4885774501406967,0.596556652847742,0.027526188800368,0.7169281851892367,0.5242622763404144,0.8692885699573244,0.15527254889331424,0.7701470730459258,0.3736628022100601,0.7857931768601911,0.6318948177854473,0.8897409614260428,0.43949978218810987,0.47768667031416473,0.03361586772917713,0.6477490403428965,0.027138812519201187,0.5438939070366907,0.024751739099524054,0.5312848203373625,0.01768070167179214,0.571451892664014,0.03245385179261949,0.7235592053501181,0.027924700237794482,0.8417476403084501,0.16068734034625312,0.5780439690488559,0.05617599198618395,0.7800306853396197,0.11789481222001412,0.8228303861244342,0.9584614086033689,0.729692147614035,0.17797141046650747,0.6750481001007738,0.08785807043744474,0.8312925705194991,0.35468910303171286,0.8950801105410349,0.34632294994594115,0.7140401886327532,0.23796332962836042,0.6108058608058609,0.48543711325731365,0.1530132898069692,0.8087539085390968,0.22861002479304462,0.8287266659197463,0.3020098960790583,0.9034283239526363,0.43897326170941864,0.702232455824128,0.48281495372036654,0.7366596164812624,0.3175750998748325,0.7815803382663848,0.6086007105180636,0.8890911269511442,0.48218720344873045,0.8085584789686575,0.9549879538859333,0.8242652222585335,0.35345949272126503,0.8822770520883728,0.32828188683110043,0.7864554820461159,0.4227739793989802
2,4.4088787611782365,0.6897946721624304,0.413629790382965,0.02984014593224319,0.3680934406790439,0.12205701570632212,0.5994145219632948,0.024390163115424936,0.7239010405925544,0.2640619481844061,0.8569587825292577,0.5540690709535382,0.8097120763119232,0.32879266828038156,0.8909361858308527,0.31882438835542853,0.5014555723153498,0.02768263632153273,0.6618662385699998,0.4629423014528272,0.9218450195918964,0.6149928977569039,0.6704184816122023,0.2855322688096991,0.6905532552118571,0.49015032445490836,0.8215124652330257,0.2942879951782043,0.39950099145427354,0.030368438635594578,0.6297456746137932,0.04994031956662635,0.5531144745056953,0.028896164297411982,0.44638988736850227,0.01533305788580397,0.5307692855261565,0.030572519289484797,0.48983670489620534,0.015129391786107097,0.8012285516160259,0.1476882183701308,0.6003060317076082,0.06054358968716406,0.8007209622491123,0.12731088312863267,0.8317322377677578,0.9576088970471328,0.7452217492206827,0.20992017116068862,0.576518776625116,0.08277655067302961,0.8210066088479568,0.37170550790925466,0.8883058876405113,0.48446286618743656,0.6683220257356896,0.23814371852319702,0.730540293040293,0.362344776403807,0.11835568321191783,0.7431431315506941,0.24799229804632805,0.799736279646994,0.29285231609548606,0.8913335302394731,0.29303337012762637,0.6590461785320371,0.41651183878080766,0.6195426670979054,0.22776891828616505,0.6739340158006009,0.4768483762473508,0.8001724284056801,0.26944189200550356,0.8182771345103166,0.9548342336270745,0.8143911658190022,0.3729992048579316,0.8734643709244581,0.44114648125827527,0.7323077889937243,0.3737986011404061
3,4.189308540210152,0.7010151896801771,0.47266495816427667,0.04031242194168107,0.45819401671995297,0.17135462529497175,0.6832043412768236,0.03085153140053816,0.8783027237510996,0.4308835048041434,0.9216661166162773,0.682378327488483,0.887113079381015,0.4412262996868138,0.9288072593052011,0.5283198497813058,0.48570500232423564,0.03707685890236466,0.7094364935173594,0.5395039181057955,0.8619214423525304,0.5171945115062606,0.6686108501177661,0.3450508205773836,0.8861334846365347,0.730039382528143,0.8888225799932568,0.40667429592175647,0.437627949835963,0.032906043039759095,0.7414577001489872,0.05271425700763265,0.6947509518999144,0.05310284744778232,0.5820650956254978,0.021591261354151046,0.5869278882316233,0.03355274944240414,0.5760553470919324,0.019274878770183343,0.8506401711525862,0.1719873911064127,0.6253909658027849,0.06627634819073712,0.8463981587111145,0.1953411802609658,0.8510544350156495,0.965534057034419,0.8117743540297526,0.31899639888530734,0.563874705002797,0.06253093995963402,0.8644079865561537,0.45021966817430964,0.9212531269753627,0.4370962277860801,0.7290467105272759,0.28822187394071924,0.7078754578754579,0.4465693855241648,0.16460786695405388,0.8802234669949941,0.43168598063695063,0.8648680967319361,0.3499653310468407,0.9268380303191207,0.4986264502693209,0.6944525321261636,0.4991689696204503,0.6212497127439549,0.28364830005616254,0.862205407811283,0.6842227511766161,0.87387885004866,0.3917598640431381,0.8365548519140945,0.9618764353504924,0.8375458041009881,0.3996115729080424,0.9032041978340962,0.3863506609835413,0.7952354851044959,0.4592294711859644
4,4.045620257176932,0.5402641019769483,0.5814294525352528,0.0782678188825941,0.33499778500612126,0.11325210218186091,0.593179133296346,0.03780269090489412,0.86716884858471,0.4527239609402024,0.9568633614889485,0.7285709248530075,0.9311905464334098,0.5313112937752763,0.9459883458638411,0.5604192860298517,0.6276546091015169,0.05055545219484686,0.6716025470233976,0.48248127947221087,0.9804856757049435,0.7748024420796292,0.7261843887276156,0.31932542652767426,0.6508861222551021,0.4587927377434029,0.7952692832014838,0.2810462836594271,0.4282908346230163,0.03387610678240495,0.5809414049694805,0.025372448749820684,0.6763356073536781,0.06525487283317101,0.5769722876010938,0.022865440062042545,0.49837285231929346,0.02529423857055937,0.5584121376263389,0.0180473659477893,0.807414236878099,0.1659751553800712,0.6045033982043226,0.057292035114780586,0.8134820867379007,0.2530106193024216,0.8945573155984897,0.9746862163778585,0.8030235344284931,0.3650822848709581,0.5892664950428618,0.0638617264901295,0.8088424375980774,0.38742555810389784,0.9473581869137964,0.6284287570324718,0.7129878857450974,0.29466016758752794,0.5311355311355311,0.3367953385283469,0.11242350622332191,0.8697327782649091,0.42465246843153315,0.8942026768477662,0.4091210998493204,0.9357618608293952,0.46508016299688343,0.653225195318792,0.43319765156293316,0.682054902077606,0.2613061706500691,0.6330502392344498,0.43476647530554086,0.7734594690958614,0.24966861982760724,0.8723645473996211,0.9687757781920681,0.7682990425465341,0.3088393486745612,0.9223884485132673,0.5216697113033596,0.7583031362415045,0.4172273630015635
5,3.9452446355281756,0.6916265933898176,0.5534736504026805,0.08681866129304826,0.4867735608284345,0.1808427338749398,0.6487345871937018,0.03402200748393178,0.829778821463579,0.4008754836946204,0.9098259608598187,0.6465718623124241,0.8754646080804256,0.5180161785400992,0.8384526133911754,0.3518826262786511,0.5566073116973876,0.034821569829898716,0.5963255604154379,0.4127383465120664,0.9315585336907685,0.7640968635866172,0.7542957967596492,0.3851493821742805,0.8245514796389255,0.6162732053453485,0.8867508628227134,0.39286419714837206,0.5105123953548643,0.03901604973539102,0.7450287400963183,0.05821250246133504,0.6567174927184011,0.05493843660285071,0.6235312233754381,0.026455854717703817,0.5851522032635492,0.03236292615519967,0.5330539248320523,0.02953030745008285,0.8485878347494669,0.18814629379782807,0.6235098920273741,0.06660040696578698,0.8356177425633128,0.18771082550361926,0.8644935866561785,0.9689396589387352,0.821299659976013,0.5197367122392593,0.5536886535295695,0.05995125338268284,0.8733887854098035,0.48393283184058017,0.9303007043349006,0.5123323147482366,0.7295361550419237,0.298253314541244,0.7030677655677655,0.4710348908345118,0.16588592682800896,0.8261312886010415,0.3679478148338785,0.83485374724214,0.40139298653139616,0.8342503849625656,0.2963771617888679,0.5841278266191939,0.37667793255716797,0.7166708513843614,0.31812409476507875,0.7964589128741516,0.5632796034280179,0.864082286342209,0.35869830100226247,0.8459428975706822,0.964247059399587,0.8327465024146269,0.3819878887967227,0.9057699543911444,0.4332176040823404,0.7738245039306025,0.42071239763757534
6,3.809266172504709,0.7490267918479505,0.6448106066644879,0.12782193201945224,0.5019701822814384,0.23036520526423687,0.6264146551761997,0.032343615776943044,0.8976974099620545,0.5714386034984194,0.9618327827406005,0.737415279960119,0.9472363739018077,0.5225913110415095,0.9435683480028616,0.5428443770107332,0.5789927047461839,0.042374997375157306,0.7419383798810001,0.556386318910131,0.9598384911698341,0.7357339517636471,0.7953596463120478,0.4952089222808196,0.6969429536537515,0.55558318738321,0.8202676400063584,0.3631189201729499,0.4904564573775113,0.04196949136775191,0.6881490816788131,0.04811757220279944,0.6764657316030773,0.06470923866291908,0.5926922532219232,0.030757517910963296,0.5606639569289322,0.041077289852511835,0.6111083792289536,0.03167436721595145,0.8334520927435682,0.17866869167213312,0.6374989283426883,0.07967819612595396,0.8616196079488678,0.17927603535526537,0.8595899931472675,0.9684940232212184,0.861521366620007,0.6041288344750291,0.5711704989140598,0.08500729101887228,0.8543215567655214,0.48465624445157907,0.9138321397576178,0.5950843465981036,0.7455337858806459,0.33135280602179185,0.7234432234432234,0.4815719429150244,0.20458043620120517,0.8966238755467166,0.5468524726279709,0.9140721956012134,0.4326474537710947,0.9322681596134446,0.45354260877782837,0.7229248193310762,0.5056842200598687,0.7522810257806981,0.39598179624964164,0.6685431734727941,0.5028399297195226,0.7979127395366643,0.35006381702640255,0.8388046385204415,0.963007247464443,0.8145810412339869,0.3952254176083832,0.880638565326519,0.4714206050211357,0.7909292888071436,0.47471327313886336
7,3.703107710258077,0.6714754598885582,0.6725899620834694,0.14686957105504597,0.3712208837852295,0.138318306538472,0.6004209381409041,0.04167086272383666,0.8370687529691926,0.5069304581481784,0.91487343674509,0.5655322534577522,0.89175812051996,0.502423440415992,0.9156728504060697,0.38285305585261686,0.5309921798167807,0.03981637955690518,0.6011614392223056,0.40428506550564014,0.9587725947715162,0.8424543311310312,0.6172357825473542,0.2889422288616754,0.7113626869009813,0.5333913655642074,0.7972985807571972,0.33186490623055026,0.38639536223071524,0.03106451634642739,0.565567557875416,0.028625749185486504,0.6447607991404096,0.05937600114327481,0.5454782174085389,0.02572868356535305,0.48814430421195754,0.029469836760807208,0.47238697573079946,0.03478275483314599,0.820120769630496,0.20181738246978295,0.6335446389397401,0.08355798880293729,0.8528112640978157,0.24779591038007287,0.8596695644371779,0.9681207598107625,0.7634997579678999,0.5046404640298235,0.50413794853811,0.06371381642429967,0.8563293749679874,0.4871333149371375,0.8889752275307563,0.537645425979008,0.692675924865699,0.29736388258186014,0.6565934065934066,0.37500376086891113,0.13925552984206602,0.8265309587643139,0.4517274185479443,0.8568164385686707,0.37889837174542135,0.9009994922476503,0.32312821131794534,0.5865018722684898,0.36531788674477983,0.5603652620200696,0.2223900813571842,0.6754392455769446,0.47322102492437157,0.7651162722732201,0.2824922545729072,0.8365056702782987,0.9620374798212851,0.8050845961831297,0.36546279331023646,0.8491940919371981,0.44523299438419,0.7306870600897178,0.40083309514257554
8,3.6226777222472997,0.6891077017021602,0.7006053824467987,0.2148368355309976,0.5333942835167227,0.24022575683911862,0.6627821442007737,0.04406113628031663,0.8963685470580098,0.5688693950143879,0.9384297514291747,0.6743099869860719,0.9210912376029085,0.4564334723662751,0.9383638457171822,0.5918359503941908,0.6084687556327139,0.048114286408942275,0.7577530301273478,0.5480323452323781,0.9772877655072124,0.8382044920575021,0.7427890311324151,0.3993828949658463,0.7962174977299854,0.6780846273495316,0.8013149499506654,0.28634967224793983,0.5266714927932893,0.045170256317711516,0.6952795272923128,0.04576267638870777,0.7307978810346168,0.12551346129324098,0.6300288341429822,0.04106575675323983,0.6306402051997542,0.04867483959296776,0.6948707861768444,0.12918724189147845,0.8287733775002476,0.17655073086592546,0.6643597036678417,0.11735544471480569,0.9009235090817485,0.2374795895947354,0.8942792553091516,0.9759912244725188,0.8944324101615492,0.6357223067570601,0.5578138475210701,0.07830092682068507,0.8631585056324285,0.5073879584559094,0.9402050045851964,0.5798862639322803,0.7676703911907756,0.3456588714638802,0.6893315018315018,0.5093012807012266,0.21192776736985036,0.8735178898111972,0.5020076494265044,0.8656728316326531,0.3154149530374519,0.9246269845483991,0.4820754688245121,0.7232530990990714,0.48352098521802916,0.688935216314441,0.2960099992322148,0.7445571380883498,0.5836108494126024,0.7647001060873071,0.2433572470584094,0.8717765536205517,0.9697379158086202,0.8009319406283646,0.3736360255387736,0.9082457750817693,0.45731138967389523,0.7886835286921209,0.4471463864182603
9,3.5133477765343115,0.6257537592550187,0.6964498755158056,0.16564856500506445,0.3986709324224694,0.13787543780806166,0.6231062907232583,0.038357741501553036,0.87186910472676,0.5105262551492852,0.9334011148411016,0.736032409423527,0.9114617963361704,0.5234313189780566,0.936080852626353,0.6022752436792397,0.5702810902088018,0.02786809889258504,0.7033195659173881,0.4339645728082484,0.9748308776241318,0.722772032765484,0.6172661914686399,0.25147324965224754,0.6461515669866618,0.4752382565857143,0.739244174146917,0.31911184143935867,0.4392885771475985,0.033586046634284085,0.649664248333047,0.032623227712060734,0.6665563597096471,0.10492114402992209,0.5508490261358128,0.028917443452285224,0.5687391889294637,0.03072972254944465,0.7369757307994916,0.13394738896055583,0.7810535581767591,0.15906278667570903,0.6304431366022664,0.1056687268977302,0.8819216841381564,0.24972691701569208,0.8728034442458374,0.9713564531535033,0.7998229137258729,0.5397805530672706,0.4432801447267422,0.047118047608074046,0.8629535644785945,0.5126703844923318,0.9439329037885372,0.6092183887429113,0.7203858486845292,0.31495934276593335,0.6307234432234432,0.37666616521747853,0.1297059464564273,0.8515534456531298,0.44192701760428404,0.8574735848731384,0.38495355217825106,0.922159573620772,0.4659365398673091,0.6781520610293564,0.38341631584174685,0.5467881582419079,0.17881495537982905,0.6062787915878491,0.40751845120468033,0.7002522130747492,0.2794594135471222,0.8440929394479344,0.9632848413812223,0.7965027622861427,0.34083692145147504,0.9034678029598204,0.48311497457409225,0.7348534089083891,0.40536081177149447
10,3.4223447987600353,0.7286466681932677,0.646429515640901,0.20901610111485736,0.5125127560312939,0.21657667076634765,0.6372186243352163,0.04881763728038866,0.7974925776818598,0.5306596138792036,0.9646396667568099,0.8359608453892421,0.9427304644441803,0.6137923433943011,0.9088348684527544,0.5978428253063971,0.4836778577820784,0.02264843378346606,0.697980335257929,0.4381749843897874,0.9005768172505929,0.5781672538441387,0.6696451111935,0.3954379816835802,0.6810879085909671,0.5194054640356015,0.7694848399269686,0.35432365889122863,0.4407002526684886,0.03932961464758317,0.7402456817996728,0.07786159859944564,0.6754898834676221,0.09226940057753359,0.6037632003500861,0.04703417815115246,0.6726507499234772,0.06386652766270218,0.7560983174968225,0.1527624379532388,0.8446998833840523,0.19238460155984505,0.6236603443087853,0.10851880841987865,0.8506983821529617,0.26066568707262866,0.8912230640458383,0.9751806443576008,0.769863826648684,0.5050026776608978,0.5203968390368487,0.08801883133643276,0.8989162139685887,0.5812842135850836,0.9105924014182745,0.45939750013803987,0.7337522364450094,0.3334963161289113,0.6810897435897436,0.4796913078797726,0.19615776243669586,0.7893881911833982,0.45171283666210366,0.8919457563430777,0.38895404565722824,0.8832700578771305,0.4753117953493797,0.6691713083482772,0.37792974000082047,0.5947673651598846,0.25928334964025923,0.6421255702681651,0.4434536373623715,0.7329452232947854,0.31528764725329655,0.85742608091217,0.9655392980265489,0.8280049656432471,0.4133382719793341,0.8598716501474121,0.39191208918446874,0.748055225187029,0.42535277032295515
11,3.3302184383738687,0.7048316922372339,0.745241003791653,0.2645677589243382,0.47821916006220866,0.1818643173170242,0.6997117624067327,0.055084784030474655,0.9458320672442744,0.666156217828023,0.9532379528260572,0.6713680042122467,0.9455960878250544,0.5145145549937481,0.949764497866604,0.6275430140226481,0.703377889088109,0.07607936114469709,0.8447884304830705,0.6699986323753786,0.9817217442423252,0.8512131575669564,0.7911392457895867,0.4777474011912724,0.8214453624044518,0.6767306393834356,0.7782594050484378,0.2911154653966958,0.6142461029920423,0.07707065034650012,0.7184023189175465,0.05542668359561495,0.7780311413956554,0.1457421801160992,0.67409288220788,0.06263933824195761,0.6282474735610747,0.04127910269033687,0.8680120135568602,0.13701772079331784,0.7854989546275329,0.19179727348476708,0.6865383871851638,0.2278266609473351,0.8915362343139948,0.25001470088349187,0.9062068588776718,0.97877171143882,0.8519476706293555,0.6002239394163211,0.5258050244668278,0.07875141733153203,0.8634860264116767,0.5751538872989207,0.9519949683470934,0.6422720894381738,0.7919400246877386,0.373628543126301,0.6664377289377289,0.4533381472455396,0.1567864697150655,0.9172064535847105,0.5370485760980849,0.8815154440154439,0.331403501685901,0.9232663409971859,0.47373441168759506,0.7977667771670683,0.5628493897861163,0.7118922938778289,0.3160272392035556,0.7567503059975521,0.5418475409885457,0.7403672432789453,0.2371974825364879,0.870544462566764,0.9686368662121253,0.7683327387469401,0.3610511083992257,0.9171266834546951,0.519213889568731,0.7943733537211521,0.4550724068983122
12,3.192889315227945,0.6117853598961911,0.6367413040416843,0.117583308160137,0.44168322790959974,0.173260918629454,0.639443719011531,0.04152050934578977,0.8617785370578225,0.4471208077573022,0.9474086032904716,0.734531319814623,0.9033658614030735,0.47832383767154424,0.9387862770918117,0.5541997859582471,0.5830182175800754,0.049050935715932685,0.7424581950112538,0.4828208468518722,0.9770243301958305,0.8790417599579778,0.5974964573606701,0.22899807726189864,0.7690749818725451,0.6435223314351483,0.8118379844471743,0.32314149079354115,0.5046753380688306,0.04237850730184671,0.5795904596156991,0.02094651707142857,0.6799599947481385,0.12147767493309075,0.5118420056814053,0.023266086559016165,0.524894232434754,0.026806006998052263,0.7536195757429038,0.19787770273519487,0.7679818836864543,0.15808847391961486,0.6327071492570683,0.16184160933638753,0.8770991906552104,0.26632603410568967,0.8836363756709524,0.9740503920302079,0.7922355840244403,0.4351054113932393,0.4332618992834006,0.04042003715979327,0.8116898544166011,0.4929057837293061,0.9309755588689375,0.6075233149390139,0.7234921036454941,0.32304183265056857,0.5437271062271062,0.42376548224368427,0.15267666554599787,0.8310988665563147,0.3621319056842124,0.8515484952426916,0.3219798474645406,0.9116917445441513,0.42274029161824334,0.691172802481427,0.3907183900859971,0.5260541232945503,0.14372897397913825,0.7109480360520753,0.5227764915684672,0.7827998281560974,0.28462326398174714,0.8478607992125109,0.9644090530716037,0.7367032386327472,0.29566474890718886,0.8850640302019112,0.49469965892090406,0.7453370406016511,0.39601357189345826
13,3.0951671175042796,0.7714678268834441,0.6312300220803342,0.22681687173372864,0.4646543264699695,0.17500599575976383,0.6232629256774462,0.05914612740677994,0.8335885851414971,0.4650171167413737,0.8918977149473895,0.5777922262807642,0.8806905775010556,0.5492415711605588,0.7914229137455912,0.4273387004644085,0.49889448602770736,0.029995246269587002,0.6915073571236701,0.47084472933088656,0.9219057953558476,0.7481810259352214,0.5380315434721765,0.3238416662318201,0.6995843516903559,0.4983405352254451,0.7381219913226383,0.330773605049437,0.5052368608033023,0.0674772684663641,0.6530176587856958,0.035726932332093134,0.6861048067931222,0.14297698514558377,0.5460458333988996,0.04161737058406387,0.5276061056892628,0.030991985705605636,0.5846940628215216,0.14721947088267662,0.8053278368002392,0.22493314135742098,0.6710411297873664,0.22895911883914835,0.8402270731982685,0.24385064867891756,0.8781773357432028,0.9730787695087961,0.7437722586016375,0.4650236500941757,0.4297565891404955,0.06104652930968194,0.860402343553742,0.5685200496450293,0.9088466719928933,0.5090164925657845,0.6979647836172342,0.3193619937298191,0.6733058608058609,0.438135411338769,0.14782130784898745,0.8020535558018785,0.3730910852043114,0.8123804209183675,0.3358935555515791,0.7323215897626506,0.3177962355934719,0.6486004390358393,0.3845074738068942,0.4594319990467355,0.19765712128623267,0.6480090686547236,0.3985312512804558,0.6970438757229572,0.24991090366557825,0.8496881702136342,0.9648546788646406,0.7573098023316702,0.3319019757561982,0.8568551805126551,0.3954575877523326,0.7001663193945347,0.3724930160555166
14,3.020886761552004,0.6320128234485917,0.642094323680162,0.21795725198400626,0.44605165094973986,0.15523494097442642,0.6184910491175012,0.05381229492898178,0.8027080981709244,0.4558767846401802,0.934306557154403,0.5493157964490305,0.9177421698524457,0.5769746728410473,0.8251067789322258,0.4681894750920351,0.6060278339072772,0.042256569246775164,0.7389933181601078,0.5334910434514158,0.9516441501669677,0.8169245553092381,0.6100941579453681,0.34461213983702255,0.6341096643364605,0.48915915953565303,0.7085357304225084,0.3099174456429242,0.638095249256493,0.1081766457040177,0.7349786031882036,0.0809972580789806,0.7742084694306822,0.1926244316073312,0.6147165029759564,0.047052817661002645,0.5152321903555166,0.02828780140388027,0.838077982206621,0.18327112835080483,0.8441690288203021,0.2872415460445235,0.6933836297831638,0.26113969779175084,0.9033270676374985,0.3588407754035019,0.8561454041012126,0.968046557100743,0.9039308600425635,0.5566994467848728,0.5414068625644781,0.09845613829124532,0.861447402858321,0.5893992873526371,0.9467875936139504,0.6453864136459061,0.7445115677641133,0.3488645213019976,0.5137362637362637,0.42075598479606063,0.13724368439341478,0.7733243240654554,0.37066935330297657,0.8438049417402097,0.31746982889138753,0.7573167777305794,0.34386170201359834,0.679588208313455,0.4149153958266976,0.5186673872892391,0.18545598149500714,0.5762159229998888,0.3741012762619101,0.6630246280368589,0.221364464549351,0.8239428589539903,0.9584408875891497,0.7564374451433881,0.33661393950576035,0.9014706064778635,0.5269238335071179,0.7013226441406353,0.3806418497578519
15,2.8909129581235944,0.6416304098923746,0.771976541969906,0.18523227729110245,0.4578056580224014,0.15117950624367862,0.5607875371276076,0.04030757188501133,0.8778922102183027,0.45962901560676755,0.9276271271493283,0.6735251986494899,0.9021559967650508,0.5079502571426509,0.9139908482156723,0.5640023060767921,0.642858272223329,0.04840342377681766,0.7415265728555664,0.5018061037970705,0.9722984067909733,0.7862880713636409,0.5472490241419408,0.2598476011515506,0.5967904217358995,0.3859220463188498,0.6934986226215478,0.23311295572440888,0.5900415265650144,0.08495743707121842,0.5187299950246339,0.017011299821106024,0.7245147387064879,0.09152673691208246,0.5769623590045627,0.03183072096615781,0.47099441680132303,0.023509969477592742,0.7965010893905466,0.247691176565675,0.7995142450464292,0.2232603263419613,0.6804847421214276,0.2509227980218244,0.8139591755231758,0.18052035217710174,0.8526870049930321,0.9662181718806542,0.8689669650746696,0.5550806521756293,0.38671566302127125,0.03630790572415546,0.7652528660895064,0.41048118959005564,0.9416656958595825,0.5329178814023126,0.7182758415947847,0.31294233159834656,0.5288461538461539,0.4273827361073502,0.13389201534030026,0.8449697722228365,0.3595896614068594,0.8231759342250413,0.3322087440888563,0.8582649139807784,0.41267994734323865,0.6880026016938623,0.40559804862344145,0.472104246282694,0.15202059050874117,0.5469008011572272,0.31983329442906905,0.6393300425810486,0.16738569687431504,0.8228805356208015,0.9575952171465811,0.6315149330328131,0.20641552437834287,0.8888630452491121,0.428386569022142,0.6948535965594149,0.35232775537835337
16,2.8008254879203953,0.8026104877490268,0.6265147016232102,0.24273656226722595,0.5030922855334626,0.2395463958440669,0.6075119635435804,0.06607679830443357,0.7722303867033943,0.4190673572512167,0.8406275952202305,0.4407821000913344,0.8523577407608002,0.5059509651966952,0.759237160461968,0.3346967679541229,0.5515082233669477,0.06676763116442436,0.6172787951247347,0.3831412527067991,0.9019280282353148,0.7603425758631032,0.6545466643977238,0.37644612308421455,0.6732770207951693,0.5529041771122645,0.7210409941349879,0.2483195213471625,0.5565190880897579,0.1268797782710777,0.637265526461488,0.04444567887701699,0.6507622567999549,0.10417167838990975,0.5571920879950903,0.09509508739856064,0.5007093485951837,0.034908296698388505,0.6447077558554742,0.1802123447405692,0.7886109146270461,0.28190660555438396,0.6747085512369867,0.33659249360653765,0.8423134151047363,0.29846991589623273,0.8635515810723375,0.9691905810020776,0.7802996187093761,0.4503250705800585,0.43693842955200113,0.05865591333354505,0.8314680510004588,0.5872817031288647,0.8722883749700429,0.38885810812313515,0.693277279998943,0.3182878327328674,0.6556776556776557,0.45545546629760003,0.16631987835449252,0.74564433535026,0.35013338335276456,0.7951060914230558,0.3103517669401494,0.7008309881590824,0.22300929811845807,0.5790913400104006,0.30395303137366436,0.5740631197283197,0.21352825742852727,0.5859704295092912,0.4060049284621675,0.6655046745633032,0.19546922085389687,0.8345817575476505,0.9599922473105525,0.6802974037345018,0.26959391841147307,0.8090413456886607,0.3462507464616366,0.6750533592738296,0.3404187888243439
17,2.710689943998372,0.8177238378749714,0.6366509633243258,0.19001290701011303,0.5888095650329149,0.2486960640536912,0.690093717474459,0.06629735915188026,0.7457817567856773,0.38995664623624693,0.9090717895397028,0.5762898572901581,0.9171828299151584,0.57993096121726,0.8664394475014008,0.5046463698342526,0.6730006039850364,0.0758098364553016,0.7693028875881613,0.6049396347373633,0.9509513064579223,0.8040200885534754,0.6957421666916894,0.398821450779985,0.7469471841708979,0.5729230775256302,0.8103900680508762,0.3788895343220695,0.667417986540866,0.19269738032336825,0.7913280463509761,0.08998682141844278,0.6946703987931436,0.14492054041131427,0.5784688830291437,0.04229122193952003,0.6235251267668462,0.05021212082170869,0.7693018822247776,0.18622131693425778,0.8896915673287649,0.38684597527284914,0.7160872993059023,0.335946174068655,0.8339520392017431,0.19151995925141005,0.8789770731722465,0.9732859947645952,0.801320630632814,0.5234639294264578,0.5262714672546984,0.09084426497894676,0.8866140298569862,0.6203886841035562,0.8309213660048405,0.4271954012223824,0.7588485956659989,0.3572982804483293,0.7039835164835165,0.5099188655213567,0.17359286035130897,0.7202430760844862,0.31865262959985724,0.8322456305157196,0.3551544591610612,0.8094045359209898,0.38169061169429475,0.7025190103132004,0.4682079449950466,0.6046516328910299,0.24520142687978141,0.6751772004005787,0.4423861542916102,0.7635989023032344,0.2796449062320666,0.8480567971388675,0.9639015531594486,0.7456883572139554,0.3070042443801636,0.7664406898804578,0.35079626429978356,0.7252676998348979,0.38965755045858386
18,2.6234367330077406,0.8044424089764141,0.6281994563614479,0.20065384803231495,0.4916612204714241,0.1943852944473416,0.6010961519037002,0.0736512728871305,0.7186485544299204,0.36773515585885536,0.8612770063466166,0.4270759871449512,0.8611148416748737,0.44231126082170735,0.7087189600666354,0.3422405613348459,0.6685507205130394,0.07290799215236435,0.7355740368709252,0.5477234217619781,0.9607437185485421,0.7729132418742753,0.6914103860418519,0.3855410649953445,0.6064923195894407,0.4296640796177763,0.7349015548564389,0.3302636295367579,0.6584344598834364,0.19992454423729664,0.7286035303884001,0.08377996010813535,0.6569109206566972,0.15735694703665967,0.5312698337765609,0.07859225664078437,0.5528519871014586,0.04282598549088515,0.6262917599709497,0.07672511742337482,0.8303161491363293,0.3375511900317472,0.706268564886959,0.35737056665101957,0.856877998392432,0.24606458023979352,0.8821621923972094,0.9732594165930186,0.8480457627351787,0.5162543855169133,0.48013292556575426,0.08529482018404708,0.8523295690905955,0.6071874207821933,0.8526209723282069,0.5239422126376277,0.7159816871846305,0.32863689681626446,0.617445054945055,0.4180589904824944,0.14359237389944302,0.7041160802370506,0.30269769416098247,0.7889009066464422,0.25807418050915615,0.6298178396962778,0.22873568425046456,0.6766091461197792,0.4273725650589927,0.5811317462614157,0.22411345505939703,0.5435451207299432,0.319520739776604,0.6756943165843978,0.2316542394094993,0.8500375419819908,0.9643650165754037,0.6999984489050607,0.26728094107009576,0.7746248537249988,0.41637594590664995,0.6675031810336228,0.3439802577887899
19,2.5616057311548603,0.8398595527059003,0.6818894096765536,0.3052603350808351,0.5376497970880356,0.296503644531582,0.6009164608698071,0.07010651849175806,0.7731769467202605,0.4644240199299705,0.8996091530896704,0.616508715609822,0.8881347034409741,0.5724860591155246,0.7604737292513747,0.4089998848850762,0.6533369382701995,0.09395298561802047,0.6104167434363452,0.4331805176561454,0.9290089351423148,0.6998107160164064,0.7112536381889305,0.4603431096771178,0.5862279558172254,0.4898976400411974,0.7158257704389906,0.28190904707902853,0.6608519876967255,0.22392759706154264,0.6810384827802372,0.06802350207106796,0.6920563583698864,0.14505698204067327,0.6031288941641584,0.10365995880350753,0.5630018768848931,0.05150079618720703,0.7402700024208678,0.24918304499686234,0.8427273185457591,0.4038535979280417,0.7387924817566102,0.4172873502190868,0.8883599604342791,0.30960192502487527,0.8754448024891452,0.9724176873436317,0.8266876580659572,0.5573030714090054,0.5008844440653868,0.08275232324223153,0.8429456724410808,0.6142032081139002,0.9246287783064944,0.5881750382475665,0.730694033327858,0.36964182505265497,0.7110805860805861,0.43329101102185313,0.1693151011401488,0.7646726405310824,0.4142918888470625,0.7980169263651407,0.3107437757505681,0.6952979809377158,0.266371926368441,0.5521352758086957,0.3388358528494738,0.6301331059400295,0.27395204754138036,0.5087640480694336,0.3563743666515574,0.6731008764623536,0.22724465671367475,0.8438916590495851,0.9616258415681973,0.688792590259017,0.27761641847354107,0.8600422181699395,0.4514385097285069,0.6771034847831678,0.36798276233023197
20,2.4678876077516434,0.8092512021983055,0.7034635701057252,0.2643398228687908,0.532161764556571,0.29558001782678245,0.6032363416515765,0.0617619925271437,0.8188730634143477,0.5400394266708483,0.9383754171833916,0.7598123104097898,0.9011533924646037,0.5925709277233066,0.8753222592288075,0.5204321803970412,0.7383884667318086,0.09250827963197572,0.7032886972717712,0.5183218875914386,0.9476422318628545,0.7364695274212882,0.7470217740993981,0.4782599219109065,0.5793757934163821,0.4653911874235696,0.7645875050797005,0.33822582369797827,0.7346760713632781,0.3221367938709386,0.7721684383851891,0.11749316990408681,0.71841112430031,0.1215704291446312,0.6092988612461776,0.0598708652659694,0.5685986005224906,0.053358499572688636,0.8298186618652788,0.2988634414235037,0.8898825672192746,0.4216580653053211,0.7246244156315718,0.4230436698461574,0.8785991240944792,0.2591570948917789,0.8694424510196319,0.9712666908215332,0.8821734351593057,0.5849428199099216,0.558521789274792,0.0840584304745313,0.8570379285993088,0.6533921186183617,0.9541150042198513,0.6817080100772218,0.7666762499988102,0.39689753352694457,0.6815476190476191,0.4198293066963525,0.17091189575974342,0.7940880162515118,0.43980491505805286,0.816455805295091,0.3300332396451221,0.8132823700419477,0.3286214005017754,0.6302069543154216,0.38593658473677295,0.6547804725468332,0.26077924649127854,0.5028701179481474,0.34215869134218424,0.7246698288282759,0.29992747067321823,0.8330429188098627,0.9581318144690333,0.7076121856157874,0.2931307421954763,0.8946065357531251,0.4940602136516191,0.7083131374638506,0.39122692859311603
21,2.4047247584416986,0.8058163498969544,0.6451866665072419,0.26120887118588193,0.5089549833443504,0.23455116588222646,0.5595293339208365,0.05140318427834334,0.7656638062192183,0.4486604938731328,0.8708745578545398,0.5565079172429225,0.8804924295241464,0.5228157984426509,0.7690270411486104,0.30246295453356686,0.5790113618755791,0.07375135005578502,0.5840495823761642,0.3813781673752907,0.8820174459592957,0.64174389119509,0.5887711242130499,0.34179863861415927,0.5567724047099343,0.43469908030403276,0.7445767458641521,0.3461417045515025,0.6536429331510031,0.24411067717890184,0.7546212049145941,0.09371662093052649,0.6942314597227767,0.12973413192221558,0.5462256721285188,0.050317422779839784,0.5523321065956726,0.03779758782208587,0.7280058479089754,0.24568264145757546,0.8745831110215105,0.44601511299379876,0.7189257202797907,0.4460505363934939,0.8848322416811722,0.2865693503418809,0.8508242400747736,0.9670388996867344,0.834959653674663,0.5328987496048043,0.49285732506495156,0.06588609715173926,0.8846637883222539,0.6785725101332256,0.8953587723851455,0.5560478719690262,0.7148515392756636,0.34731708992223825,0.6552197802197802,0.40357232401640747,0.13750957371466704,0.7480397441066066,0.36352443956583164,0.8074647511031439,0.30545940781424763,0.6975646139754685,0.18482987895731903,0.5308958816229292,0.2777181537055052,0.49363382088840846,0.1860103934257087,0.48692083008790477,0.3192531162514535,0.6891413942151731,0.2818873657418056,0.826196470798677,0.9593920959601508,0.7390138352319984,0.3141694060405985,0.8100192690178177,0.42229426280628624,0.6574966304604122,0.341095281271234
22,2.3985154585714206,0.8525303411953286,0.6779464691393453,0.27702961878011423,0.5622033872039082,0.2740523111471677,0.686893314029661,0.08723371650055747,0.7940238179208878,0.4628755337181451,0.9077425058560242,0.6160124671495275,0.9161275084677684,0.5662179267116549,0.9099734687576236,0.5818418723470717,0.6934851833932576,0.08650172946629943,0.8066236267713216,0.5927595833515825,0.8978953905450592,0.6036313314516828,0.5838954412495467,0.3325992107727852,0.6534284297595728,0.490643684603586,0.7726736715203228,0.3537706822910705,0.7131705375014816,0.3046224982780522,0.8080027087344025,0.17188823266036243,0.7297746388675271,0.1624205435771117,0.5789394610383138,0.0601579934108578,0.6417875015126602,0.06527502872880166,0.7881347212975851,0.2568273692986619,0.8847523344913825,0.4899670700131163,0.7398859924723428,0.44882445480132094,0.9116675906531884,0.2984864030047271,0.8691275570882636,0.9705451783642393,0.864549142341731,0.5890408347070292,0.5516888952217861,0.10113066851977115,0.8908951790481562,0.6593296123946756,0.8771693517237512,0.5281386735381667,0.7671280676521063,0.3863638603551162,0.6790293040293041,0.45302524295213165,0.15409104347315644,0.7958904503211729,0.38527936012674097,0.819195351282405,0.301476493978352,0.8552092736154623,0.39656501580725617,0.7357921590224012,0.4475176847979888,0.47739880075920704,0.17272301689600067,0.5837239902080783,0.3732711620575311,0.7263683947499934,0.2760381095487466,0.8364393661470779,0.959542597219584,0.7216918487821499,0.31883291783981016,0.7927288402614963,0.4402832203008854,0.7088603380092341,0.3841473292769138
23,2.3212091107831077,0.8719945042363179,0.6951309674693704,0.25257918266244866,0.5943904678847263,0.29865307044657735,0.6322050249078854,0.10343009894949434,0.7997084840996312,0.4696473686516281,0.8655715954093085,0.477475394510976,0.885820286145249,0.511176955164191,0.7667290211865453,0.3823962522379184,0.6705429224653973,0.09969156013989153,0.6950529104663294,0.47571356801948983,0.94106386317276,0.7641957139163738,0.6360282275879989,0.3889286765704622,0.6078972401163766,0.4588477761414971,0.747363979277534,0.3437922609577468,0.7197946306774234,0.29735935563426746,0.7886939082219465,0.12533291899300578,0.6551620306483638,0.10660278284064084,0.520375728065857,0.041735082762668664,0.6128852537591086,0.048738684072379086,0.6725829147249289,0.22296436214587603,0.8822253659672606,0.43661410070906026,0.7241562484765657,0.3891698054881427,0.8500483618477258,0.24203130502507395,0.8515499629252947,0.966800409072978,0.8502332220007507,0.5546391179717285,0.5376184401369863,0.08827387238500249,0.875786926966992,0.6657115005829047,0.8851670213271956,0.5161691000846387,0.7393994446642781,0.3603211213384097,0.6939102564102564,0.46768079750478886,0.15881838635876389,0.7945677945956583,0.4021417909330243,0.7776292315912852,0.28807444427025514,0.6772976623480061,0.21369554713341132,0.6218931924900634,0.3345016220899125,0.5353856891166132,0.21945441043846525,0.536443752086347,0.3383263200856459,0.6956849060849692,0.2690544060822108,0.8256795171602014,0.9590721002617185,0.6838563643297371,0.2781909641830897,0.8194697712114258,0.43468148948383245,0.6759626071380995,0.3541828619382118
24,2.277622101443586,0.850469429814518,0.6612586786872963,0.22562958716305745,0.4986938037706018,0.267819089074544,0.6424518054740256,0.08702313425125961,0.7879963791326827,0.4764755128091547,0.9501044639029647,0.7724468664716524,0.9422719108852713,0.7158768280509231,0.7983896734669276,0.532478188357419,0.6783602596819434,0.09648319072147912,0.6878025569399501,0.5165549592291988,0.8680489653754947,0.44345005874563476,0.6451999756251627,0.3759906366465492,0.5783305912738741,0.4646830902861304,0.718430993358909,0.2853436999670556,0.7529025401453597,0.38523516421685483,0.7354503048523848,0.09282148520416897,0.7006361853264058,0.1249072368917184,0.5448821269526553,0.047127383653327276,0.522213205581775,0.038393735864360665,0.6776553894571204,0.24280593644393475,0.8735116694155124,0.45203407893935715,0.7543638726249132,0.4832372997317978,0.8808409147972088,0.25413264019851933,0.8477395093783395,0.9668964301290686,0.8097067645188146,0.515481332547661,0.5053856395142553,0.07261133864356312,0.8563301695504509,0.6870060304149341,0.9169397564227791,0.6110443244959133,0.7346628928190029,0.3790366392277495,0.6826923076923077,0.3782262739316625,0.1306729815766962,0.7601317257130716,0.37609741114060136,0.8458819549779372,0.3802346036565152,0.7147103820421601,0.3280776172076369,0.6127961612743391,0.3865334637037718,0.5565410329301819,0.1954177322157828,0.4947123623011016,0.34996082039792,0.660188034637652,0.21140703182900078,0.8184520025487017,0.9582041541311306,0.6730639527140686,0.2947906120698918,0.8512254020236604,0.4723598724500398,0.6696299350085941,0.37125057276172607
25,2.23112847746606,0.8592473856957484,0.7224387742358902,0.28565497377134685,0.579687855973207,0.342767775411308,0.681561870074965,0.09390986734742943,0.8490832159216284,0.5696930696181216,0.9456795411569281,0.7588902351627898,0.961609074100983,0.6923070721584793,0.8097987205164812,0.5287179161600699,0.6445393112040805,0.07274762721304665,0.7243100198530408,0.5812515310125046,0.8580873756583121,0.38633647437121893,0.6328140046080845,0.4311362024862766,0.6407667252406651,0.537517756967665,0.6870987165774435,0.2826742567216506,0.7160871408280267,0.37121535202971556,0.8364392871881242,0.20759876829290264,0.7258960318970206,0.14865440211032552,0.5835485778128463,0.04202469589699505,0.5751176315658346,0.04806036326718572,0.7345472977062277,0.18935459035524088,0.9133533080868207,0.5610242977786193,0.7798750321497194,0.5404776538721549,0.9185151311920438,0.3018088748936152,0.8583224500782597,0.9688070097359732,0.8237140038659633,0.583077099751945,0.5717395578269241,0.11172142887375057,0.9109583862494692,0.6936000718059671,0.936621520116157,0.6149273031100578,0.763785576358709,0.4054058025991243,0.7032967032967034,0.43345348055881494,0.15812940397376132,0.8243715208451065,0.44176761881049786,0.8520979126447876,0.37908071240909524,0.723298199968141,0.33716780232153765,0.6395169071750606,0.4390882776052861,0.5305975564085761,0.22889638101635273,0.5409832257705575,0.38883336730867163,0.6324744060718178,0.22420038892178024,0.8288377067951169,0.9583903055277387,0.7619497156415088,0.33494381234585585,0.8661413171572824,0.48084050261621614,0.6939747226397064,0.397394415714254
26,2.1867026970519534,0.84993511945653,0.6694295315833804,0.22033358791982072,0.5728027608068456,0.3319834702572743,0.592341795036575,0.07985328489403463,0.7164203998164804,0.43514086950729297,0.7764940033660686,0.45995171127822865,0.835679674469783,0.5415960699143659,0.7402560394170783,0.44130387711903346,0.6321669465236076,0.08067219789654058,0.6386511842402187,0.4483565199483018,0.8312226094682009,0.42918943330125264,0.6079133910991537,0.36097498585390103,0.5469419115778367,0.4287122048901051,0.5724459227389668,0.19710891801021932,0.673575483455337,0.3102293524245424,0.7535939663249155,0.11551363034999737,0.6794458616134469,0.10848344888792572,0.5211344227064381,0.05009221343333295,0.5826778473008212,0.043280551739037755,0.7013719512195122,0.24411000361476246,0.8557770080623157,0.4545510009580245,0.7487258624950199,0.4966930277466363,0.8726202432247073,0.2785615072788609,0.8559614197528342,0.9678028759870059,0.7447935259852082,0.4648641957249388,0.443686486544984,0.05468342741819183,0.8684931489266352,0.6574347070341127,0.866451124516291,0.48458177169916056,0.7000397971212097,0.3402244016698852,0.7115384615384616,0.44962621977515016,0.16194968372389404,0.6801280337708228,0.32268743670523575,0.7287170780474351,0.27338771484212876,0.6514877475707536,0.2683555932291297,0.5753977324151727,0.33406820754128247,0.49623375407478015,0.19197953939700696,0.4657919773005452,0.314537057175187,0.4991486712783959,0.1460377391394732,0.8311361285746397,0.9591354948214927,0.7120178301037575,0.2921188680989459,0.7989333812991287,0.3922002023472581,0.6262380503827802,0.3324052306382759
27,2.153666855861063,0.8559651934966797,0.7334772806381243,0.262245546377597,0.5335785546198609,0.2789225592078749,0.6543165372842428,0.09448715681661268,0.82677160201447,0.5392337936519824,0.8876479976652973,0.5996675021668663,0.900671599328156,0.5452714169697273,0.7736700085644771,0.45082584097681594,0.6625219379381659,0.07438979630870521,0.6345014414692858,0.45047761089878247,0.8845894762897168,0.5472958114719145,0.5970898423828097,0.3442385938754283,0.6374798778251534,0.5026209511326003,0.7053746620473837,0.2891165864046523,0.7176034531136888,0.25947377486549195,0.7582993486855658,0.1139041906680795,0.6723628822002086,0.11411120683683168,0.5398200413778944,0.04038764061630673,0.5253896730993277,0.034683815686581514,0.7037334321854384,0.22892800158217946,0.9009150267730056,0.5301362028531543,0.7498218947573685,0.4692814748953662,0.9068187677670813,0.292907462574343,0.8418685782189661,0.9647427652382888,0.8255026341869851,0.5331006625213898,0.552522836435952,0.0685580405170891,0.8598608661657864,0.6693193795985861,0.8901807516413532,0.5025526623353108,0.7361626298028061,0.3629955721129096,0.6691849816849816,0.4049896200018053,0.14052252553209543,0.8115324433778834,0.47096316539858907,0.8106319808328738,0.33882629935040937,0.7003414883449265,0.28668709089727185,0.5594129621419794,0.3221415673619279,0.5132829323097088,0.1839327329773225,0.5693123400467343,0.3782104313398902,0.6803405314886416,0.2286877090955215,0.8192563955252725,0.9573294394589769,0.7033354424658773,0.2893034756666437,0.8239314171825056,0.4106109733242014,0.6723970503380189,0.3642923100366227
28,2.157792740391917,0.8612319670254179,0.7567695753720577,0.27973150858861906,0.5608759717428413,0.27795339745238673,0.650542659602967,0.10478987650002589,0.8341160976841802,0.5229396494279401,0.8891619920946884,0.6266521566036684,0.9066038072788314,0.589036561838062,0.7587341380460737,0.4625416889653362,0.648365287620204,0.08467529596960385,0.6577786832580492,0.4874858344926201,0.8946441081764397,0.5654849239203837,0.5985231162060829,0.3619984960716759,0.5694935542160992,0.4330712683976575,0.6433519876333587,0.24033595415327988,0.7035745927871953,0.2897601681924193,0.7558102968863242,0.09250639742400626,0.711112778368761,0.14993263423637895,0.5892453442375549,0.052415652092505594,0.5197170198579641,0.03841364322137813,0.691139245294438,0.20019529578664233,0.8805897881969368,0.45946653486982697,0.7521973597725902,0.4972064903143746,0.8945684336996139,0.29228812777632407,0.8373849250015566,0.9633303522732293,0.8223374667656193,0.5398935233560737,0.4854004244816179,0.05962179604371737,0.822731616815174,0.6458733411039184,0.8763518632258046,0.49324577398961705,0.7300415605304822,0.36336467937265454,0.6684981684981685,0.4323222111903401,0.1520373438811816,0.8236740572268465,0.4185776091356968,0.8060491933259791,0.36051944465238134,0.6780385493548557,0.31224181242013127,0.5848077032228176,0.34971555479884475,0.4841461260862534,0.18846393433689448,0.4891985645933014,0.3038851522859132,0.5849595670001256,0.1656084214247001,0.8161947476198821,0.9559818209845569,0.6434877813833307,0.26075678708556516,0.8221647459673584,0.42693614607351915,0.6513675679064629,0.3540658206435804
29,2.1174585227156113,0.8712312037249065,0.6689183758333267,0.27595314637212964,0.5630092504271901,0.29234117265820037,0.6530777304619853,0.10660447490787331,0.7981098955870061,0.5269741490582681,0.8511357270315999,0.5266291864258963,0.8929536133139784,0.5925706416859414,0.6590326942743592,0.3795516319803629,0.6476857253986775,0.09878656425014941,0.6609342948659205,0.5081726907482891,0.873807634761969,0.5920034576980294,0.6662031790559568,0.3949093857379031,0.5756623014573199,0.4571298921790835,0.6368463876631105,0.2320430686481689,0.7133466621039457,0.3435496359179712,0.7673114681846893,0.13042424936328506,0.6753374856980555,0.12522700426262606,0.5505470469356604,0.061910344691025125,0.5149282346604405,0.03754229373408063,0.709634297645706,0.1587707263713346,0.8898994252623859,0.5485431597504635,0.757484706819775,0.4679847550393478,0.889041576023308,0.29857718696806695,0.8410428754216359,0.9641258343453147,0.7957925388610538,0.4818138580956371,0.49715741094556537,0.06465302393658084,0.8606369287456342,0.6795051688126768,0.8940685180704537,0.497064210217876,0.7223557772411375,0.36456892273542896,0.6817765567765568,0.426775782010009,0.1479012136745672,0.7838315568763732,0.4336923994955162,0.8041283869966906,0.3343546160708164,0.5733179458928477,0.2349927363004878,0.5841514504903487,0.3640432444024778,0.5664662612455422,0.21026899477048638,0.5032544230555247,0.3365906275296135,0.6026226652755494,0.1913349823102798,0.8224247857957607,0.9587166184772938,0.6901169044209949,0.28653105922813893,0.8127493911238469,0.37893566489193065,0.6518035957439534,0.3524874688319644
