epoch,train_loss,train_accuracy,train_1st degree av block_rocauc,train_1st degree av block_prauc,train_anterior myocardial infarction_rocauc,train_anterior myocardial infarction_prauc,train_atrial fibrillation_rocauc,train_atrial fibrillation_prauc,train_complete right bundle branch block_rocauc,train_complete right bundle branch block_prauc,train_left anterior fascicular block_rocauc,train_left anterior fascicular block_prauc,train_left atrial enlargement_rocauc,train_left atrial enlargement_prauc,train_left axis deviation_rocauc,train_left axis deviation_prauc,train_left bundle branch block_rocauc,train_left bundle branch block_prauc,train_myocardial infarction_rocauc,train_myocardial infarction_prauc,train_myocardial ischemia_rocauc,train_myocardial ischemia_prauc,train_nonspecific intraventricular conduction disorder_rocauc,train_nonspecific intraventricular conduction disorder_prauc,train_nonspecific st t abnormality_rocauc,train_nonspecific st t abnormality_prauc,train_normal ecg_rocauc,train_normal ecg_prauc,train_premature atrial contraction_rocauc,train_premature atrial contraction_prauc,train_prolonged pr interval_rocauc,train_prolonged pr interval_prauc,train_qwave abnormal_rocauc,train_qwave abnormal_prauc,train_right axis deviation_rocauc,train_right axis deviation_prauc,train_s t changes_rocauc,train_s t changes_prauc,train_sinus arrhythmia_rocauc,train_sinus arrhythmia_prauc,train_sinus bradycardia_rocauc,train_sinus bradycardia_prauc,train_sinus tachycardia_rocauc,train_sinus tachycardia_prauc,train_st depression_rocauc,train_st depression_prauc,train_mean_rocaucs,train_mean_praucs,valid_accuracy,valid_atrial fibrillation_rocauc,valid_atrial fibrillation_prauc,valid_left anterior fascicular block_rocauc,valid_left anterior fascicular block_prauc,valid_left axis deviation_rocauc,valid_left axis deviation_prauc,valid_myocardial infarction_rocauc,valid_myocardial infarction_prauc,valid_myocardial ischemia_rocauc,valid_myocardial ischemia_prauc,valid_normal ecg_rocauc,valid_normal ecg_prauc,valid_mean_rocaucs,valid_mean_praucs
0,5.077841988447722,0.2915807953591329,0.36955248795678525,0.02993870804561844,0.449782760493444,0.016699547511523208,0.5360239332396398,0.09312694107082539,0.9155964466354752,0.1451814118376399,0.9056638628259887,0.3796608759681419,0.3291440172278035,0.013360017014750227,0.5537318616963774,0.3236627013775209,0.9145273966093753,0.15972835722357298,0.38743878581669355,0.2103639117981949,0.5953567760782814,0.14068827173909484,0.37665401426810186,0.028026057443560095,0.3135478124471752,0.011443077022308032,0.9029934163689914,0.7582308920792833,0.5145889882395813,0.020923335361254815,0.3738105354023779,0.01328823717289642,0.3702244431631324,0.019396428057502985,0.29721184107002363,0.010375524164196927,0.49600247135436126,0.03820496953649689,0.5918589345961238,0.05068111403949394,0.8023403258611189,0.3507940601753445,0.6105180305726826,0.08372582591914705,0.43929273848876405,0.04111426594877208,0.5475391763823771,0.1335733877503245,0.36607142857142855,0.5758785559977952,0.10213946603361496,0.9146453366431264,0.40593022386760536,0.5672471900632475,0.3178068471203421,0.39885000556359185,0.21604627475553695,0.5924511428496279,0.1319103448198107,0.8955095777959394,0.7305854917052632,0.6574303014855546,0.3174031080503622
1,4.71170341183271,0.5131669338218456,0.7176288783402816,0.09585548848891079,0.5966929896342793,0.02536070760862208,0.8280822031682943,0.43866324342445684,0.9797229154602618,0.4124616145593562,0.9346704254552177,0.4950521049066235,0.5975480104859391,0.028463238285385307,0.7340011668348043,0.5376425202099953,0.9430654853331505,0.273067172601708,0.6481958088639911,0.492676846965631,0.8150610681039491,0.3785587810236711,0.47058526607203965,0.03707989638358909,0.5754128972166009,0.031108919277195907,0.9189420374958919,0.7779653217300335,0.5990374489886147,0.03440463348516168,0.5708776279871026,0.03153427724811539,0.553817479469347,0.03689573923472658,0.3835728983840707,0.011930629041737128,0.7326721041097128,0.10077514705164932,0.6360744226078506,0.06509529959672655,0.8689608774557962,0.40445831615051325,0.8521193693147839,0.29650374240384325,0.7378650151547204,0.12056912464918762,0.7133911998153043,0.23300558019667453,0.5132783882783882,0.8387892519202017,0.4541826824579379,0.9376468499442467,0.4789869487919714,0.7340231299174852,0.5002548579126139,0.6554653944586625,0.4935832649079088,0.8252978773771009,0.40653084153051283,0.9194075173016301,0.7776498659458899,0.818438336819888,0.5185314102578058
2,4.4877589044293575,0.5487367376536142,0.580685221055764,0.1128998700784284,0.591655602188205,0.021930251968142238,0.8658241558826536,0.4569823792291973,0.9350990832176037,0.16950623158475234,0.9110599367326746,0.47761884933129567,0.5344239848466162,0.02757823177674979,0.6336333251209874,0.4385266483002168,0.9557075072433661,0.3562643509379588,0.6419983189915691,0.4311777269579381,0.7763180458723261,0.3838187340063047,0.38935340171610994,0.030974183435469326,0.5312375316435338,0.025699162106260918,0.9137116014557061,0.7337626766764336,0.673641348763803,0.05391927350588743,0.7100482642190615,0.05425634790059098,0.5008613264427217,0.04041440353692108,0.3873638261816862,0.012738337660755644,0.7710858491500591,0.1192328147598264,0.6519702524740575,0.08112234471793725,0.842690136205162,0.24088316139515176,0.8640472286833256,0.4933656051026014,0.7243052572695118,0.12946433507163185,0.6993964184252957,0.2223698145472933,0.5416666666666666,0.8720768132965648,0.4665113493101726,0.9195843068018902,0.4544852151838216,0.6392088764394837,0.43343074865488673,0.6424166852119728,0.44724041932781977,0.7818196165075357,0.3703828286468749,0.9162361808387718,0.733965912071178,0.7952237465160366,0.4843360788657923
3,4.346691514870455,0.45523242500572475,0.5973109852983767,0.14506210620237234,0.5170951681776328,0.01887435184266205,0.7950672138529657,0.3900182023633781,0.9220271191304659,0.3765085708581475,0.8380080194801978,0.4542902843492875,0.4331135586735097,0.01778680527121685,0.6044789986777288,0.44472105312226295,0.9166916768143776,0.28925028294378946,0.5729696239536858,0.37235844254818845,0.5946137871625203,0.23373622815664097,0.3679873277344014,0.027411720827299008,0.37974755662986354,0.0164813907129105,0.9295572554040489,0.8165878269985316,0.5787166299125672,0.10692742494594064,0.5815385053453315,0.06971053698285354,0.3951949611216701,0.02120452258690082,0.47711409852932274,0.016160541709999424,0.5700509043384261,0.07126237329808244,0.6701917888356003,0.1640515519397875,0.8209766986888378,0.36954527094502215,0.7718754933164425,0.3000296573553693,0.47918831611383655,0.060885054891589435,0.6278870766905369,0.21740291822055607,0.5139652014652014,0.8054903709095849,0.38418624953095787,0.8572842550310624,0.4450683521895495,0.6096753558537344,0.4137210447381183,0.5749788583509514,0.36846656387085763,0.5961381882158336,0.2012163478727155,0.9233887039176769,0.7995782428737318,0.7278259553798073,0.4353728001793218
4,4.204399616752323,0.47164338600106864,0.6626408584493814,0.22058564314931017,0.49788689199653935,0.018292108680773154,0.8292824379091649,0.5231737240854246,0.9414924745950323,0.3785455884494405,0.8640938704300891,0.46630189840428715,0.45790667008187,0.0197598415353406,0.5950605408096679,0.4234439412530836,0.9686109754399612,0.59965503401121,0.5656135478578808,0.3898066571457973,0.7184005183844803,0.3767454008627702,0.3923779901838995,0.030741154930776622,0.4516000216260756,0.024067297752055218,0.9351290824198605,0.8275578973051451,0.6647788323182414,0.1482992765910519,0.678996110238144,0.11342783659298143,0.4512975657443592,0.025610457924907123,0.45180203352902015,0.017672691912892256,0.6561708258529388,0.09471136983143913,0.6895600405464696,0.15190396460343053,0.8846521485635521,0.48312879251930824,0.7888638377841257,0.35130712061285224,0.6022685313899699,0.11108980638302368,0.6703857184613965,0.2634467047516955,0.5155677655677655,0.8332426311357859,0.5157808374774463,0.8656530425317263,0.4151751361522199,0.6007197610614174,0.38719509509977545,0.5694547679982196,0.3800905237454363,0.7285310561093721,0.34709158879893504,0.929093762958609,0.8092371052521761,0.7544491702991883,0.47576171442099824
5,4.115199500391041,0.44920235096557515,0.6133959507430524,0.16808947841219762,0.549067912231726,0.02564730993537157,0.8253624846875445,0.47227449487043616,0.9812513131665122,0.6065739934639184,0.9133436853645158,0.5225072420080413,0.43553708815967973,0.01777621127483294,0.5047918588320244,0.3504472504515136,0.9506677598937417,0.6627484243644168,0.6466712362473197,0.5328462924349596,0.7638413524483737,0.3762298034464575,0.4339092429253828,0.039404868815654574,0.3689447843859734,0.016363799080737245,0.9302568557475581,0.8167557376608483,0.6926756627125866,0.2127218415722492,0.6635910497261581,0.10911890243416342,0.476672883402975,0.04055837645715342,0.5478790927797615,0.04802037341665496,0.6112800294755063,0.07797200144101818,0.7330062046857061,0.29547811314570277,0.8835633750840435,0.4539996100928624,0.8422595907266662,0.5229909498654669,0.5743077952954533,0.08370372217519106,0.6791944185782846,0.2932831271281749,0.47184065934065933,0.8279720352789463,0.45420989819738417,0.9203923963255988,0.5167689225685038,0.513477111690288,0.32640701208797385,0.6358439968843885,0.5077526986938216,0.7723682018639801,0.35896879367019957,0.9254029498323182,0.7980467560916997,0.7659094486459198,0.4936923468849305
6,4.034897054445561,0.4878253568429891,0.7408993351986034,0.26522416600382476,0.5611000750969454,0.022213092328171164,0.8465057445364202,0.42033850586388666,0.9796806379042631,0.6111887544089026,0.9359332702820367,0.6815665603399172,0.4776190340666534,0.021238872218281246,0.7278984838285918,0.5430642185331741,0.9502166932238338,0.7106428761303176,0.6473828496701286,0.47910858671701684,0.7176742519652807,0.36035665178640447,0.4949498948944625,0.050791266840990654,0.41468290766692284,0.019696235851333947,0.9323899791709388,0.8218416616002815,0.7458219565328068,0.21584067373582888,0.7731433711818927,0.1468097961390697,0.4910645093167996,0.034411832052084625,0.6460789505537735,0.06135846764338991,0.6298642840632402,0.08629421316975296,0.7330012456440282,0.26648405230380157,0.9160835581513305,0.5324315726038444,0.8967531672143775,0.550426266598423,0.5834715505328696,0.08865571023587344,0.7201007159407363,0.31772654695929875,0.4649725274725275,0.8436262187110073,0.3817761535795593,0.9321121834014762,0.6285575450129215,0.7212441496403496,0.5036741929799744,0.6372577055747191,0.4489649481753978,0.7233961966385228,0.33613608865220834,0.9213238816846292,0.7858068547455643,0.7964933892751174,0.5141526305242711
7,3.961706931623245,0.6208686359819862,0.7990065178170495,0.3150725614737326,0.7000312537969338,0.03118426474648022,0.9355301850370736,0.6730744494029685,0.9735129830531057,0.5185983985306496,0.9332892964855423,0.6382483913074691,0.6205645837088476,0.0344311798163027,0.6914526778196369,0.5547686057676718,0.9704441934835122,0.7343388836628477,0.8431167153020606,0.7056539801155013,0.8990090984585731,0.5307456100137461,0.5163147132349938,0.06260342197989487,0.5787514226330568,0.03230818037319007,0.9175180149886856,0.7350088722979276,0.7963939003378875,0.2952122328197073,0.8195052336816959,0.1759605629215463,0.6037646846667283,0.07904751807218635,0.5378604823579253,0.02490681665727589,0.7477126068617449,0.0829498269296585,0.7798460343636372,0.2948060212486891,0.8929558104148165,0.4777192495801254,0.8899567813857338,0.6580128926533295,0.7716776403006569,0.1802889128887375,0.7826461286449953,0.3561336742390744,0.5446428571428571,0.9275691433736167,0.6372295478747082,0.9354358041735252,0.5941193807355688,0.6901919516232208,0.523319667315195,0.8228441081562257,0.6701225037626681,0.8958625950182804,0.512790001169998,0.9133885579760616,0.7277976463788041,0.8642153600534884,0.6108964578728238
8,3.916875747567542,0.378062743302038,0.7058459743910637,0.24870898470503436,0.4470445765513082,0.015604565683067936,0.8353797842690365,0.45647860206421903,0.9668487590896746,0.4993946595626145,0.8112899486013844,0.37134736885197744,0.42209320342911716,0.017565259968881475,0.5741972592629891,0.3665299478534601,0.9573608290256208,0.6434528176847972,0.4608204963578669,0.27370019302626747,0.592375296985728,0.25035607719655883,0.41941696729506767,0.03573939947091794,0.3758493880710293,0.017985193335176036,0.938741174961427,0.8377421381594752,0.7157959115865178,0.19798223593092248,0.7158997668840468,0.11713449124122419,0.40871659987234343,0.021007006903995637,0.5123188131695212,0.028059921407709867,0.6131086926674465,0.08432407502663385,0.7139591139621397,0.29192313561187944,0.8574833640299068,0.378234833348068,0.7656289199211087,0.3927048812565346,0.5338907628481444,0.0894310133863364,0.6520029819651132,0.25615485462162507,0.4677197802197802,0.832608731617567,0.42947810751723353,0.8081152431901449,0.33861760063474144,0.5829917331791135,0.3327728896742015,0.4573522866362524,0.25702668384004834,0.5923693124198134,0.21938151139539558,0.9265742571068534,0.7994503594369824,0.7000019273582906,0.3961211920831005
9,3.8322084574251356,0.45187390275551487,0.7583854120998106,0.257724728122261,0.5041554009049695,0.024028201718075334,0.8646427577170709,0.511970274506161,0.9712771409098131,0.49052114616299336,0.7174916726788142,0.18942266430378094,0.479723495017914,0.021931114099849783,0.41486237825293626,0.20474563322196204,0.9816172099283287,0.7855610874866885,0.6031487956868633,0.44074549730028645,0.7416653204734106,0.378896688621311,0.4850679151199958,0.044878478007371755,0.4689508410558726,0.02264249074455517,0.9085567922126534,0.7701197753020309,0.7416295106390389,0.2670976596234412,0.7151541854841672,0.14491792265570339,0.5024595259619925,0.044190435534422166,0.5018245400351026,0.024636558857120183,0.6438470749557258,0.09533606260836858,0.7092675243287223,0.2674070439241242,0.8252058327421505,0.29376760991127215,0.8241779260174354,0.5088642648103823,0.5746843120880377,0.10255214989744264,0.6789907074686741,0.2678162494281638,0.4409340659340659,0.8681454172460723,0.5089648529045201,0.7165372949078745,0.15548801563983056,0.4306864882195118,0.19874678182023864,0.5954061422054078,0.4169966423447402,0.7288034345400399,0.3117357429777833,0.8980992865971247,0.739576626404944,0.706279677286005,0.3885847770153428
10,3.807999650573614,0.6354476757499428,0.8415860575045236,0.39192120683685894,0.6098730158962521,0.031166012845640113,0.9287852761300442,0.6890783093075926,0.975980198730136,0.6139709781607136,0.9242574333062961,0.6811400604261572,0.6267672886763874,0.05419762689135723,0.7320907031420874,0.5692977044731021,0.9906449524070517,0.8356737830721347,0.7783801132098832,0.609935128422089,0.8136064368827768,0.4409572685396189,0.5329756485972647,0.06915018915379047,0.5628471891918896,0.04566232485265979,0.9443934979927626,0.836303887886521,0.86728364875764,0.34660790191067403,0.881441317498533,0.24364871256621334,0.6092000578963228,0.06461460308137706,0.554507353386189,0.04243367585578074,0.7621823692676137,0.12849012007918165,0.7833799819457263,0.4077507033998678,0.9113145660156071,0.5058862308723446,0.9367264552548478,0.6719818276434825,0.7437289501668269,0.18377280852708947,0.786906932357121,0.3847109574911022,0.5908882783882784,0.9171098013230041,0.6678933641998674,0.9213174680082834,0.605839063263395,0.7242758286379611,0.5258296417890794,0.7526902748414376,0.559902309811799,0.8144021556473225,0.4005308741664154,0.9304612107316405,0.8047867754505011,0.8433761231982748,0.5941303381135096
11,3.729220471776321,0.37088771849477137,0.670439637122595,0.19672829014614923,0.46610463507715366,0.022084706139200144,0.8844208964653386,0.5738708211343873,0.9027411229943784,0.34541664017873985,0.8638492850147504,0.34434967177114756,0.44697738692672806,0.02446363566009097,0.5519000326628856,0.3633366673492876,0.9694505649936019,0.7498245555282211,0.5696890134402908,0.3878810333250171,0.7123971744016929,0.33523487541704716,0.4373813419087487,0.04006551688708235,0.3946633894493495,0.017458453629078108,0.9503795443799593,0.8710807238267203,0.8053532144876352,0.26428610657307716,0.6997539956044417,0.1409408774454589,0.4157947812634211,0.02225202369008272,0.593322565514737,0.08617370459587584,0.5832585728363049,0.09394424691707137,0.7722377717596866,0.36412450595459545,0.908552400988806,0.502769172847163,0.8591268372660001,0.45754487247367875,0.5213313994520441,0.09341066123846237,0.6808693438186615,0.2862382619421652,0.4823717948717949,0.8752907186835789,0.547388683998954,0.8632959764774598,0.30980698981440874,0.5614105598704062,0.3348833983062013,0.5493293090018916,0.3449865658624568,0.7035675144883697,0.29921110858037697,0.9290338765716403,0.8157115340242229,0.7469879925155579,0.4419980467644368
12,3.7119872376041805,0.4650026715517899,0.8531833810279179,0.3478285468546065,0.5802424767645953,0.03326735910383545,0.9104553428132893,0.6427707287826931,0.9768162694284587,0.5683544213009307,0.9039109237294781,0.5330080196883,0.5828610549816117,0.03588378120970104,0.6238717911962494,0.42444621263559723,0.9855164724420586,0.767719673070493,0.6679576898514559,0.5305494433314167,0.7541608670595097,0.3815010802931838,0.49543180997829583,0.05473322054420099,0.4582873380011894,0.02111061965879163,0.9523415595513244,0.8680678589694402,0.8032250047561503,0.37159030915831975,0.8196416113849905,0.2382491424431156,0.5283658762869474,0.053202671127682295,0.5936157174847183,0.09257299539811546,0.6766317977451933,0.12112751099687394,0.7717270745184266,0.4108032104422544,0.8877082550472412,0.5171492110745898,0.8177358273665926,0.4574237716219472,0.5931464538881913,0.12260927766947151,0.7380379361501767,0.3451804120625254,0.5444139194139194,0.8913854971104457,0.5908570738101452,0.8990551823926086,0.4807678662718727,0.6211136047419552,0.37442937379088437,0.6382638811616779,0.4672505533619595,0.7458206569230004,0.33246726164416174,0.9356399992753244,0.8259348551631593,0.7885464702675021,0.5119511640070304
13,3.6472228848563835,0.5134722540264102,0.7854824792149923,0.269303643390953,0.557756760554927,0.042681903774954316,0.8681664353806422,0.49325699897906133,0.9614569614479936,0.48139315010120504,0.8369596223772442,0.5314235549016374,0.5425798382837971,0.03163298550846354,0.6612721618386498,0.4958362556428182,0.987782303423554,0.8775871187863675,0.6224169348845644,0.46291231680279277,0.6807858127113958,0.3036664033594499,0.5154499113015072,0.06802293214787564,0.4942569424150989,0.03559378330793274,0.9551486359696214,0.8756982276818241,0.8275594116843203,0.39398852140047474,0.8208431588972588,0.23841911511642352,0.533513428862266,0.04591862685827374,0.5985418053622223,0.04072572297872801,0.6920737652352391,0.14022739088799646,0.7548965913732848,0.4066773250796578,0.8896117655781599,0.577974803777353,0.7946767021013887,0.44112961599151734,0.7259932377712885,0.16932620041130333,0.7321465757577008,0.33742711804032105,0.5299908424908425,0.8587536037797129,0.4653908853256272,0.8253589112196678,0.48207725063202994,0.6544692835984373,0.4456518410109015,0.6025586958940693,0.41507531557810523,0.6706412875433629,0.2525882045652003,0.9323056108008874,0.8162886326561635,0.757347898806023,0.4795120216280046
14,3.602721814144368,0.4834745439279444,0.6196192470898332,0.20737773601075626,0.5129476356173247,0.030114860539666,0.7963824578246426,0.46165586331411296,0.9180789078554261,0.34943756720094743,0.8159753522374171,0.4021521536055463,0.5167031903691266,0.028957101081182636,0.5608472131304415,0.35258148877643614,0.9558836464574358,0.593192888005579,0.6022631866930328,0.47021198488304183,0.704448468174119,0.3375645346769142,0.4958125203832418,0.06680594040440115,0.4884452767898145,0.021416318914543632,0.9455080872680349,0.8550135988703215,0.7592912398412652,0.3203347645806414,0.6754053302700803,0.1656561629141129,0.5383752963034146,0.06681034692464083,0.5805222265932337,0.0420916177080955,0.6954174798789696,0.1327861542543572,0.7354818591531301,0.36485018182233425,0.8408685627768799,0.47890312530292467,0.8054679276353496,0.4671693974127057,0.6629630383545966,0.14084470153313278,0.692123097758946,0.28890584039710876,0.5059523809523809,0.8002284824637098,0.4689841785928902,0.807990794084851,0.33922546487437416,0.5596016463076963,0.3072007023171866,0.576987036830978,0.4211463821755004,0.6996075061884263,0.28316200045357376,0.9248466103298482,0.8123103147108367,0.7282103460342516,0.4386715071873936
15,3.529607992100903,0.6649110754904206,0.7307012963892942,0.3115962982148008,0.5915355641859301,0.03808440853197824,0.8789439632225152,0.5924363293535798,0.9478277023045111,0.5246132129581952,0.8405853377696463,0.5530785404968268,0.6099322335113666,0.05361496670076672,0.7404242888909082,0.5523072531937319,0.9601934216313098,0.758491017561994,0.5970479700205646,0.43627943956681314,0.725771523693195,0.4067499005165034,0.5664687050689732,0.11087211740133128,0.46405434851789523,0.03524278584118412,0.9531259374644603,0.8689187877668545,0.8447652873384585,0.47645352500568905,0.8173891312965099,0.3115459476507487,0.5168182885941871,0.050786056159233595,0.594835986201053,0.03915660125568575,0.685806918054269,0.15375169912673486,0.8034050965500199,0.5116656707748098,0.9115032951774644,0.5743298312828026,0.9117490045242643,0.6043034213666908,0.6499921797880889,0.18504715862449087,0.7428580672815855,0.3704238622432475,0.5879120879120879,0.8720585277335393,0.5813170891755746,0.8313615063983434,0.48111890926158535,0.7230769938777357,0.48846316828277414,0.5739758818293089,0.38910108083590556,0.7187108200285821,0.37091862406798315,0.9294504392339374,0.802386551427716,0.7747723615169079,0.5188842371752566
16,3.4950162780693437,0.5657583390580871,0.8124109878226028,0.42912570828655533,0.6198268378623281,0.03438046087045281,0.9276379695126933,0.6632812711528558,0.9805431000466335,0.6409634157023126,0.9419502310024669,0.6729256495522445,0.6102762836263135,0.04802512421441724,0.676193984742786,0.5560913204105824,0.985033249867951,0.8290374747327226,0.7058461392020561,0.5724791567060781,0.7462245574317035,0.4039488078661079,0.5986471889374998,0.12928478560953652,0.47319102326240303,0.02520315466337987,0.9539476740359397,0.8567629126480623,0.8536820640887887,0.3926166496521531,0.7674977463959194,0.2763206697659935,0.547651995643539,0.07603197166456596,0.6527041850753494,0.17861079025193882,0.6831855792475752,0.18220014984532382,0.8262055934628063,0.54366570701712,0.9256152233660182,0.6228361851340399,0.837644113903778,0.5280273762615295,0.6502595099316691,0.1902028030961525,0.7625534199304009,0.4023646156865511,0.5663919413919414,0.9145019317391224,0.6174029735356709,0.9336570116285243,0.5978585337479575,0.6640691657858849,0.4977613753087968,0.6609752976521641,0.506091307967879,0.7419722887094464,0.34431954027970185,0.9240351246240746,0.7706988370379929,0.8065351366898694,0.5556887613129998
17,3.4346136093758397,0.6272040302267002,0.6307166244190958,0.2196269649076914,0.5445988754488615,0.04125663063351835,0.7772774834476911,0.4361162841582927,0.9094947703944367,0.4408330166182157,0.8582278080395273,0.43680522967134794,0.5315824091729832,0.04036951848413549,0.616465567086924,0.4147474297824393,0.9389287553344545,0.5319102241446971,0.5850865871764938,0.46312242708763796,0.656109186409866,0.34908592164902214,0.5806608824579226,0.12214146234435996,0.5055952337771926,0.03034444249979374,0.9583755705380721,0.8904541362878909,0.8044411724513064,0.42237755132757,0.739283672366805,0.24025045751244045,0.5571897029966093,0.07147149810907458,0.6452513163469104,0.1506347678006514,0.7083189228927012,0.15492624745085018,0.7683705597665385,0.48555717682314326,0.8626536162698017,0.5279305360515807,0.7790070068129251,0.4689419175104841,0.7301905786931047,0.24869990152860344,0.7130830137409192,0.32670926101742914,0.5563186813186813,0.7845185716014756,0.4359306730023877,0.8505523880953645,0.36448753494611985,0.6061308547699511,0.346417831609715,0.5542266607321688,0.39612408865019,0.640982432760228,0.2856186218049178,0.9293292825308894,0.8143273249351173,0.7276233650816796,0.4404843458247412
18,3.4081009806917693,0.5734676742233418,0.7885052397616068,0.32660251336522167,0.539027355489616,0.04768464076215952,0.9379624909840899,0.7140103641712437,0.9048656342402082,0.44194717990245547,0.7799606430292023,0.41424595739791503,0.5682237464148271,0.0488723316098842,0.6766153256780378,0.47293066513240606,0.9673167831719646,0.7893775167821976,0.6501721447197703,0.4897290375627502,0.7155302535789048,0.36851737291561704,0.5409355765669899,0.07226277419400004,0.45685820343430295,0.03755016772848502,0.9689247041977812,0.9140537557104513,0.8757020345604646,0.3803735095829876,0.8429318508627389,0.25632687595122466,0.5026824505330496,0.04013835230459287,0.6552877050172486,0.1839119967822032,0.6931740566882113,0.19285595873869654,0.8134669080627293,0.5057224978182778,0.8973820990389979,0.5384151015039432,0.9111283674066931,0.6185752732692376,0.7030896794073852,0.20121744465571373,0.7449883296747646,0.3661509676291665,0.5608974358974359,0.9128370747627012,0.6514743390811978,0.7610013009079807,0.33080259716055754,0.6534669564937267,0.39737487856198495,0.618745131857127,0.41841068328099373,0.711031034190507,0.3122776273060402,0.9370928732180025,0.8344645992464002,0.7656957285716741,0.4908007874395291
19,3.3338815554818364,0.5830852606671246,0.8169534320172815,0.3914655421193118,0.5813696628835178,0.04210703027514845,0.9247736162015063,0.6762022702851836,0.9071774478704923,0.4747170565307415,0.802629223956963,0.4182224006625441,0.5944408078853252,0.061167248091362716,0.5547746270537055,0.39398350594865994,0.9779507738412272,0.7884956786511548,0.6488967371203306,0.5477908235141445,0.8261999940857888,0.5417768447790451,0.6424628715274825,0.1833912497441167,0.6147088794886939,0.06887431284943177,0.9610809810344504,0.8955774329844102,0.8464945833478474,0.41913691352945914,0.8288950633519391,0.3252530360675673,0.6080831808809258,0.12239356906603642,0.577522241723658,0.14613423287798474,0.7477381546178004,0.20880199313441178,0.8174356543329416,0.5412890043215559,0.9335075146222973,0.6386626051783757,0.8833305385558118,0.6091828315449648,0.8067115454928911,0.33196332462116335,0.768324433267858,0.40120858667167153,0.5123626373626373,0.9058328333828205,0.6256578704061593,0.7923558381564275,0.36906608442477307,0.5492936615926477,0.33779809218676754,0.6005352175364416,0.4623835780141369,0.8074711182420486,0.4627049377242198,0.925304313430252,0.8046699508175768,0.763465497056773,0.5103800855956055
20,3.3213240493027256,0.5623234867567362,0.8491366483062442,0.40398876346297524,0.5784510559684505,0.0723864761888322,0.9717382833848671,0.8075610669019678,0.9658084749844982,0.5939749488166285,0.8633763163413279,0.5771627703410707,0.5749203909775387,0.04425199033174121,0.7105650479856311,0.5702215538201751,0.9772417969293873,0.8162478271908017,0.6552971673888097,0.5405473182047223,0.7187259614111928,0.3982062938955847,0.5940753157016757,0.1732817095832653,0.4821090419580084,0.023079888579664476,0.9647546104222318,0.904737147522582,0.9011464331553238,0.46129030407438637,0.861026999038612,0.27875375052086715,0.5109053893409073,0.06248386939903383,0.6400710373418871,0.24141214335394734,0.7295879511916203,0.2035364373947936,0.8558920139256616,0.5933339010691446,0.9480982166779287,0.5443712415762393,0.8989509431391596,0.577845201348913,0.7018139026619382,0.171918839207902,0.7706224090105865,0.4118451564902381,0.5451007326007326,0.9524314139006851,0.7363713818568126,0.8328283465194073,0.4524089678151231,0.6746296497991204,0.4750451826098827,0.6160562479136531,0.4592957592059107,0.6959853406630018,0.31147090978241393,0.9234513581628667,0.7769065112645797,0.782563726159789,0.5352497854224537
21,3.237540685714688,0.5077475001908252,0.7918906086838686,0.36461752567409644,0.5690805894158688,0.03376480891452949,0.8702541558083687,0.5592440864200782,0.9287760263197004,0.4403106276843842,0.8166084116563525,0.3957736529292885,0.5024753899814377,0.034058023695298645,0.6028623659054779,0.4595697430525333,0.9685603658037981,0.6942300423780358,0.7124110308246056,0.553433784381531,0.7401799237325025,0.39895637033075876,0.5069760912526342,0.09428826927734221,0.4298801874351132,0.0227303049929673,0.9724280648539594,0.9250912074370122,0.8192133729545206,0.4078778689712618,0.7256125569395645,0.27875818193917296,0.46895926614037964,0.05434939104596674,0.6301360225140713,0.22839921325865897,0.6823896015419026,0.20910228106122036,0.8250303846367208,0.5782998585327509,0.9163375842330266,0.6266451190808099,0.8225233303878998,0.4651268575794803,0.608141549185268,0.17217451736193032,0.7232148581912292,0.36349098799995944,0.5657051282051282,0.8623819819286392,0.5415759801453006,0.8042332607656772,0.3220425202293026,0.5767571788188985,0.37558284749771564,0.6653961277400691,0.44655826489271466,0.7193175342153484,0.31181617460431854,0.930737619118553,0.8146738961103579,0.7598039504311975,0.4687082805799517
22,3.1821855448664675,0.5403404320280895,0.7651353915074411,0.3044812894698154,0.5103463242753438,0.06718998609849373,0.8931989174186854,0.6139834730141582,0.9436294128800496,0.44135062996783975,0.8824721956710185,0.543570713097427,0.5748410191219766,0.05207953094011139,0.5826191582776299,0.35387548920622103,0.9558381198851671,0.6851691631778417,0.5193243490836109,0.3404465743353887,0.701683122507202,0.3808364383425501,0.6168888091231205,0.16237582658566752,0.516503056736283,0.041859597876898004,0.9555544741288912,0.8875093961768539,0.8707117612225047,0.41997535261475394,0.831309023633057,0.2604182634333158,0.5346884394805467,0.055128402129999685,0.5838017460509592,0.13164211441674162,0.6849306474009937,0.19503077992068646,0.807097481311137,0.5449788122029282,0.8962261329226227,0.4865349992694364,0.8431643453637588,0.4920750449298145,0.7210134891569605,0.229620339326155,0.7359535189617709,0.3495514643878681,0.5425824175824175,0.870349262961199,0.5577657694271408,0.8544600900015931,0.42466245609176256,0.5600584767511961,0.28240790033136925,0.49655335484588853,0.2945180589527212,0.6750940319314027,0.2710370490402229,0.9138340573379444,0.7669961631389026,0.7283915456382041,0.4328978994970199
23,3.139984892284713,0.6017861231967025,0.7963119066408397,0.36812394173975954,0.5491903290358753,0.07597433097976738,0.8589649894391371,0.5778864805362472,0.9093148986107339,0.3996545091918365,0.753341338150439,0.4570324882084428,0.5775363418745039,0.06968031742498777,0.7312873948721649,0.5620944723035535,0.9683214618007747,0.7453747952133104,0.6172406327484955,0.4770212715699132,0.7063687466740632,0.4200104298852337,0.6354967416948544,0.20084618182399783,0.5586660338530206,0.05827096170750249,0.9684808077798245,0.9105501650084152,0.8705352477619299,0.4782729742925488,0.8640969960188202,0.3497732974296828,0.5319594820651903,0.05943452174169836,0.6082158203716033,0.19729437931807892,0.7574520371294056,0.265418666867855,0.828189714443251,0.5684291911827949,0.8817776096440602,0.5144714583936172,0.846757490385856,0.4959178224636684,0.7416106647592392,0.26457763714162347,0.7527780311706401,0.38709592247384256,0.5986721611721612,0.8419796472976114,0.5242617661215621,0.729130714702915,0.353328978728327,0.6986802846523072,0.4647369772032631,0.5809861466562812,0.37905986535677944,0.6758994771620038,0.31737600777215896,0.9219994907140874,0.7708112396328223,0.7414459601975344,0.46826247246915215
24,3.077204686868701,0.600335852225021,0.7664930763139925,0.3334411569332866,0.6297678508952347,0.06490171503075101,0.8465810466202585,0.47504582589218924,0.9603849051189152,0.6015019714118236,0.9041251615808402,0.6247637458044724,0.5811945622373377,0.07248824211221036,0.7197633416697968,0.5983217100731443,0.9677110521279253,0.6288645424920051,0.7089128597456028,0.6049275981514555,0.7672533874031693,0.43967451754256703,0.6964845730250773,0.26675182651322804,0.4595481176759634,0.026282149253177872,0.9790396658843084,0.9446062613051348,0.8677120372131907,0.43858980806996917,0.7692453667173962,0.264261523731734,0.5607353782124749,0.14184296307737,0.7000578738727834,0.2830274189344705,0.6486264170749383,0.20270305880251185,0.8537145743713364,0.5876270830620873,0.9267600258154532,0.6653997378103303,0.8313627422531715,0.3963105607898513,0.6665156305036191,0.19160216993247647,0.7641813475605811,0.4024061630330112,0.5338827838827839,0.8416775001371417,0.4455371119188838,0.8944472468539265,0.5705387227208992,0.6916744262390644,0.491723949940984,0.6426171136085457,0.49233272080651325,0.7479803957670287,0.34427853976002165,0.9264914729836908,0.809957304006523,0.790814692598233,0.5257280581923042
25,3.0482484435554715,0.5942294481337302,0.7090040799462207,0.2864226825698838,0.5754856049549345,0.07696650682028226,0.8609623738966452,0.5166121033934786,0.949548526947458,0.4574980474058991,0.8499411181704759,0.4327891445929728,0.49473489484019695,0.05505026002607251,0.673261174015623,0.5046961263554017,0.9359388087508259,0.5533088397516093,0.635182240413446,0.5413370517106842,0.6685122427398862,0.3297885765479146,0.6150980973855207,0.22183598590519438,0.4249025971137402,0.019832129057443797,0.9776917039264482,0.9419492455584508,0.8629478484784339,0.4778311253241731,0.7178663783252368,0.28368101592588485,0.5204445203740482,0.10582722663599874,0.6622745566785693,0.1879326023251447,0.6698917087972915,0.21996289125075216,0.8215390511924394,0.5827724616305872,0.8982063146755459,0.5267152682103474,0.8243880256010355,0.46049941118230275,0.6206850660234596,0.14159020723197993,0.7258412242385219,0.3602226777005663,0.5190018315018315,0.8470212382460837,0.48762217557308235,0.8367460043540594,0.35139026110538474,0.647220129992652,0.40758533099714545,0.5830104595526872,0.43659775772290954,0.6583538640036707,0.24818803451407406,0.9235218127357712,0.7959622125137908,0.7493122514808208,0.45455762873773115
26,3.000452668054824,0.6789558049003893,0.7170829314499951,0.2807826649906482,0.6028187704302483,0.11408039428719366,0.8342475115380656,0.5257564878403672,0.8534531795284387,0.4183319616751386,0.7354630131613565,0.33017438425486906,0.5881116139049372,0.07724109954984971,0.750158233963626,0.5447060638542985,0.9308566288678248,0.556988685024227,0.6585713076995101,0.5359256578916474,0.7327205926504434,0.40571631394641106,0.6034340279428713,0.20752611683126163,0.5817539226347677,0.050434239068980376,0.9638987193619825,0.8969169821128778,0.8206623240559378,0.4545548535670344,0.7776852357648278,0.29473295796655036,0.5698647266652904,0.13140999353014046,0.6492056527265024,0.1670733971173663,0.7300459859608998,0.2512131392841804,0.7973127037199537,0.564479354790842,0.8885425811746032,0.5520729914373343,0.8141560284988705,0.4481487307090722,0.6885418306613633,0.22984397725101746,0.7403903419255599,0.3653686566809686,0.5805860805860806,0.8093590736011327,0.48610667555092296,0.6935498858386874,0.24195908205576272,0.7271255731473286,0.4448843359494331,0.601553911205074,0.4318884726360911,0.7113086731488057,0.32076468215088166,0.9096854152995125,0.753017172204898,0.7420970887067568,0.4464367367579983
27,2.942921943513867,0.6834592779177162,0.7712539822985336,0.31057197486858845,0.5631000985189946,0.09839564924864794,0.8527301272362022,0.5161493033341036,0.7943647861268122,0.2623719316802358,0.7497611650912517,0.3338543940810727,0.5816534011314443,0.07379919402977424,0.6979576821737237,0.5088518017599365,0.9411153568200352,0.6594637986711889,0.5808254921009091,0.4078697597126456,0.7005734331311267,0.3713613827694257,0.5993253188826333,0.19411280664958788,0.5284175872006482,0.07280741403909978,0.9747737548457116,0.9364623030885483,0.8476256762441687,0.42165170161097887,0.7768201365425554,0.25681639774078074,0.48874735136186864,0.07359053747893893,0.6337990982267143,0.24215743701478354,0.756206975058786,0.2517313723433246,0.8170833942707099,0.5594166265094763,0.8952268794138611,0.6071306554338062,0.7690442253892,0.3126468914457683,0.7177209480415845,0.23345313561220762,0.7290057668230671,0.35021211223286003,0.5828754578754579,0.8497875827095198,0.4970160561457469,0.7076964304677958,0.26836575400922646,0.6542296700481528,0.3831335671303432,0.5520504617781239,0.3215426528273316,0.6873189136425939,0.2791640426270923,0.9210644578822563,0.77758655564147,0.7286912527547403,0.42113477139686833
28,2.916889780059624,0.671399129837417,0.7951364809102092,0.3380081868774968,0.6612919163188736,0.13142504364062416,0.8703309612808446,0.5519974650624123,0.9317629997079007,0.42049301648463233,0.8672477084860855,0.5252431077497025,0.5819843280113082,0.09850577837722414,0.6295794841579216,0.4825121477708911,0.9478201390991483,0.6920198939387238,0.7813629077588617,0.6563324555397044,0.767445792962063,0.41963243858137905,0.6216433362955304,0.2449969743791015,0.5190273535637514,0.07920275020546949,0.9873706746789003,0.968048691482939,0.8924805265795109,0.5177009907336358,0.7592124262567542,0.29914182601734407,0.5663249834497192,0.1331956714067971,0.5716716849240453,0.09260907036811374,0.7865123489510647,0.3424982731923766,0.8567959883874373,0.6207794034293143,0.9340442131763286,0.6969713724592979,0.8271229228307342,0.37515348351331695,0.7537969254585646,0.28451479275524294,0.7686348228747982,0.4077719469984427,0.5714285714285714,0.8407684464324431,0.4993695382103853,0.8475407197472522,0.41437936697123323,0.5922618015809585,0.3641549238783407,0.7071233448314233,0.5078132659601888,0.7574873382022438,0.32719110844671884,0.9265490947593876,0.8040639634637197,0.7786217909256181,0.48616202782176443
29,2.8527491496961614,0.5577436836882681,0.7168315052623468,0.31784953088384504,0.6206821086285365,0.1017031801813672,0.9012588049935143,0.620828456020435,0.9130182844024004,0.37351171511239506,0.7571321392539317,0.3802402380923222,0.5110165605740071,0.09956367357772156,0.5876111327513178,0.43436019331495346,0.8891164971943698,0.4572746940122482,0.6601836791003431,0.541878868579553,0.7667387348159408,0.44739329394343264,0.6124510383650279,0.20430687174121076,0.527646816073649,0.06977434539724411,0.9861271910363398,0.9621214623581569,0.8938892848625807,0.5178262373276855,0.7972872826293022,0.3400415000590825,0.5827599461848934,0.16644427589682315,0.5972152454154815,0.11238175823232568,0.7575924628905809,0.3392205037974531,0.8328225520405196,0.5815353130575885,0.9101359566125137,0.6331075617013525,0.8119112544599082,0.41693817035001857,0.7364195642892277,0.29813081075533265,0.7440840019016697,0.3825651206542067,0.5251831501831502,0.8935876013433793,0.5733285362183338,0.7261389582116498,0.2967961414320981,0.5589865052471072,0.31707258044937614,0.5912829642817403,0.42951940678749034,0.7383249895520076,0.3258471022038125,0.9211701397416128,0.802837103336135,0.7382485263962496,0.45756681173787433
