epoch,train_loss,train_accuracy,train_1st degree av block_rocauc,train_1st degree av block_prauc,train_anterior myocardial infarction_rocauc,train_anterior myocardial infarction_prauc,train_atrial fibrillation_rocauc,train_atrial fibrillation_prauc,train_bundle branch block_rocauc,train_bundle branch block_prauc,train_early repolarization_rocauc,train_early repolarization_prauc,train_incomplete right bundle branch block_rocauc,train_incomplete right bundle branch block_prauc,train_left anterior fascicular block_rocauc,train_left anterior fascicular block_prauc,train_left atrial enlargement_rocauc,train_left atrial enlargement_prauc,train_left axis deviation_rocauc,train_left axis deviation_prauc,train_left bundle branch block_rocauc,train_left bundle branch block_prauc,train_left ventricular hypertrophy_rocauc,train_left ventricular hypertrophy_prauc,train_low qrs voltages_rocauc,train_low qrs voltages_prauc,train_nonspecific intraventricular conduction disorder_rocauc,train_nonspecific intraventricular conduction disorder_prauc,train_nonspecific st t abnormality_rocauc,train_nonspecific st t abnormality_prauc,train_normal ecg_rocauc,train_normal ecg_prauc,train_prolonged pr interval_rocauc,train_prolonged pr interval_prauc,train_prolonged qt interval_rocauc,train_prolonged qt interval_prauc,train_qwave abnormal_rocauc,train_qwave abnormal_prauc,train_right axis deviation_rocauc,train_right axis deviation_prauc,train_s t changes_rocauc,train_s t changes_prauc,train_sinus bradycardia_rocauc,train_sinus bradycardia_prauc,train_sinus tachycardia_rocauc,train_sinus tachycardia_prauc,train_st depression_rocauc,train_st depression_prauc,train_st interval abnormal_rocauc,train_st interval abnormal_prauc,train_t wave abnormal_rocauc,train_t wave abnormal_prauc,train_t wave inversion_rocauc,train_t wave inversion_prauc,train_mean_rocaucs,train_mean_praucs,valid_accuracy,valid_1st degree av block_rocauc,valid_1st degree av block_prauc,valid_atrial fibrillation_rocauc,valid_atrial fibrillation_prauc,valid_incomplete right bundle branch block_rocauc,valid_incomplete right bundle branch block_prauc,valid_left anterior fascicular block_rocauc,valid_left anterior fascicular block_prauc,valid_left axis deviation_rocauc,valid_left axis deviation_prauc,valid_left ventricular hypertrophy_rocauc,valid_left ventricular hypertrophy_prauc,valid_low qrs voltages_rocauc,valid_low qrs voltages_prauc,valid_nonspecific intraventricular conduction disorder_rocauc,valid_nonspecific intraventricular conduction disorder_prauc,valid_normal ecg_rocauc,valid_normal ecg_prauc,valid_qwave abnormal_rocauc,valid_qwave abnormal_prauc,valid_s t changes_rocauc,valid_s t changes_prauc,valid_sinus bradycardia_rocauc,valid_sinus bradycardia_prauc,valid_sinus tachycardia_rocauc,valid_sinus tachycardia_prauc,valid_st depression_rocauc,valid_st depression_prauc,valid_t wave abnormal_rocauc,valid_t wave abnormal_prauc,valid_t wave inversion_rocauc,valid_t wave inversion_prauc,valid_mean_rocaucs,valid_mean_praucs
0,4.702238486384886,0.47932087886264835,0.7268482512679145,0.09329364282053991,0.6859244591275009,0.014739806578333582,0.8642732646830297,0.17509120130214767,0.8181637642548171,0.2061266869255887,0.34846399930191385,0.0042934150858036976,0.7487725615884462,0.10665853845678067,0.9065875858063756,0.3191036861662021,0.782313208275487,0.027487077425363826,0.8424924502260903,0.5238970278423071,0.9616858116094851,0.2952288811640007,0.7833080028485664,0.20217440082472732,0.5149388247686826,0.020131615661203646,0.6712954727321402,0.04066597027164083,0.5747284001647113,0.009338293751601785,0.9382183013280453,0.7499297678128665,0.6900183167412057,0.01681421022025465,0.3987156973080659,0.006194730179419392,0.550942320637559,0.03047659920579628,0.547901840888251,0.018488465713607724,0.8196609698194027,0.3188286775591298,0.9635049265253436,0.9032049459146908,0.9430612725916845,0.8317168858362184,0.6465858407392436,0.06539578881859828,0.3340126601916883,0.009725910146087603,0.711034528676295,0.33452830567970415,0.7291704645417294,0.11885244337705855,0.7116393537170644,0.20932257595152592,0.4843598554938761,0.7355590849095722,0.09788664956746185,0.870566879512044,0.16791877866704474,0.7613619296506564,0.10374518506385703,0.9056865669002668,0.3535002126944936,0.8304505112545656,0.49009472592421477,0.7750025478529382,0.19166559483126822,0.529986277167641,0.023776183720457512,0.6688203919896488,0.03757927072304468,0.9323852728548695,0.7388091869878292,0.5570933279875099,0.028394345986433638,0.8211961942892241,0.31684939792216715,0.9637461745910186,0.9006368338958938,0.9420172501822859,0.837752524409073,0.6499675056986274,0.06784412017713576,0.7047435201642224,0.3166610440815747,0.7256903394255874,0.11618525119486661,0.7733921109019174,0.299331206615426
1,4.289019321613762,0.5351016331805898,0.8128611152006866,0.14251633901665609,0.7004621416997158,0.01526980939791187,0.845902396096286,0.13778274980496943,0.8516598398119996,0.2162016689093601,0.39040877449283196,0.0045684951974301205,0.8428486929262673,0.18207879529820353,0.9505659764496712,0.3945612622229987,0.8497315489232349,0.043082444391535336,0.9222128653779369,0.619873174927013,0.9679710841790602,0.37970644600861664,0.8531789964829471,0.31341312764393015,0.5922537854413751,0.03951062983519707,0.7308887201724341,0.06488541325545641,0.6389404932664917,0.01324616815335841,0.941022769474451,0.7361162289417882,0.6187263481551561,0.01631702707495424,0.5390846928751661,0.009232472770353054,0.6491513473435235,0.053964354944087745,0.772734272216242,0.053787151477071825,0.8412711843439966,0.39494528777562243,0.9735788385286397,0.9313102712878537,0.9228187880284064,0.8038326442452327,0.7351886465484355,0.10468944154302078,0.413252260660566,0.011572029656814257,0.7353368084566722,0.35202673927989536,0.7946895885218745,0.1767845469279758,0.7648746913720795,0.23889518153797334,0.5371398361089083,0.8117641319460442,0.12972362175066737,0.8434675132829811,0.1322578663568039,0.8406506620550955,0.16308132229864616,0.9513274958186341,0.4334506791102255,0.9160152440335378,0.571831763063031,0.8353425051669803,0.26620255047541963,0.6278447599343654,0.06870859326060581,0.7191159280715167,0.048671261400898475,0.9329824198209608,0.7194480990261477,0.6560994827650298,0.04794035566982769,0.8263289640026487,0.36958026075346584,0.9715969494598816,0.9222488763671598,0.9164273634962056,0.7884273965955785,0.7433707745283477,0.10989258411254818,0.7383343961524343,0.3364607778902193,0.7946867586721372,0.17403127944749397,0.8203347093254251,0.3301223304736712
2,4.116616890918157,0.5193279285630361,0.7789191766239224,0.19112882997575098,0.61527032988783,0.012362885536346254,0.8886260408378838,0.24205363919847583,0.8444330262772937,0.2311150657351581,0.44385458977585246,0.005061582842091331,0.8243332338608083,0.23840971347247075,0.9319394458343925,0.3253095329997535,0.8243060627394732,0.031228955845618682,0.8726589194531968,0.42583060762173813,0.9582781811050356,0.36060360792936325,0.8135657685130033,0.31628319314741354,0.5763032602555189,0.02780828684758929,0.6322281357621733,0.04984290282256194,0.49276163658270045,0.007630652243150713,0.9435561866659397,0.793476892435873,0.5297241872366044,0.01684088778065113,0.49459813603581537,0.009618468474476203,0.5736706559726774,0.036789157960090135,0.7488916547063748,0.05502016271061277,0.8410676048823358,0.3962970370721269,0.9649824916715803,0.9204792260152249,0.9550562151665654,0.8593504508657138,0.6724873288777989,0.07854434280105144,0.5018777581043943,0.013591898532211669,0.7613072183098591,0.3881577877066087,0.8039785133702737,0.16731632342822386,0.7418721445580503,0.23846738815385954,0.5130848532910388,0.7930666261935285,0.17400378274186298,0.8827695015606013,0.23315073127908476,0.8158527401228132,0.20860393080971706,0.9346828486696931,0.34956934351517915,0.8586204833076068,0.398222286881163,0.8004564998759662,0.26969645677179777,0.6031468091267328,0.0415435390087145,0.6336927674528026,0.04187099518093587,0.9358330933893328,0.7746168868127977,0.5672704172397495,0.03119232646857864,0.8252999906270789,0.3685820273447376,0.9653891154429748,0.916073243068469,0.9505042863202091,0.8461676012594546,0.6698763276589553,0.07698375063864199,0.7536028948136675,0.34701481612859464,0.7849597911227155,0.15277225224174937,0.7984390120577768,0.3268789981344674
3,3.986934166315397,0.5462049112912701,0.8523948608788068,0.28640910290535787,0.6424668498246419,0.013206157535181184,0.9153650410754643,0.28685733923652224,0.851157266575535,0.26965861740566865,0.44211169660274113,0.00529230343616877,0.8692147579871506,0.3297467775700033,0.9344922923538983,0.4906486374959175,0.8047855132920567,0.02646513292381826,0.8811725408894736,0.5583153452625671,0.9559993874025678,0.541610843519518,0.7272119458874157,0.1854162135522376,0.579006986530439,0.030653672241082747,0.6574145682507231,0.04938945131565954,0.5150348617767645,0.00657767180765572,0.9571589964955576,0.8269022237387783,0.6923726160015481,0.057142495958091205,0.487296976767863,0.008613660389904942,0.5709361877693621,0.041191623379803234,0.8427671630187777,0.10196494701497572,0.8100838606897101,0.3843722874814608,0.9367522053314284,0.8730589848808884,0.9595343875938113,0.8599075370120741,0.5455370307896985,0.05205468943136608,0.442468774318108,0.012289433071260701,0.7064348889949869,0.33389766835236434,0.7029117738582448,0.10864432518923631,0.7416185934983375,0.25924181315798317,0.537580403559785,0.8494223091912871,0.288561489093574,0.9121357604059946,0.276550936759364,0.8481360613693676,0.27732056603548316,0.9378661953855132,0.5164187593688513,0.8663431748549637,0.4986055842982781,0.7161836833203947,0.15948372697172353,0.5987179433377118,0.04988848772238583,0.6669124566253014,0.039927936644698014,0.9480979103662415,0.7931153435448488,0.5733362452139834,0.032216434295978764,0.8050253335578771,0.37648373451327555,0.9370804153575595,0.8692941943066554,0.9511252402752052,0.8395733474830979,0.5435896988214752,0.050908379761321454,0.7013955711756853,0.2998393760653313,0.7012878776575905,0.10912073055720681,0.7847909923072595,0.3423318142138796
4,3.8790878799964226,0.5777523205263776,0.8609330280876039,0.36860069050139443,0.6564915104844915,0.013397646042393315,0.902697561582121,0.3311883036103474,0.862436743257627,0.3399069172069808,0.5109534083775971,0.008966898940877478,0.8749905772977413,0.37279197926365837,0.9668804733850959,0.6158719525510694,0.8198016115837518,0.0284044051203072,0.8954981516806759,0.4980893715855055,0.9778068630008336,0.6567293144095087,0.7653120821959778,0.23406747782516663,0.5763020850743426,0.03820061082390644,0.648636752102648,0.054756788661379875,0.6218861456825341,0.010294952637038949,0.9713503766955551,0.8794388312854932,0.7106371484475791,0.07618139143465075,0.4790919572174267,0.008476625070783268,0.6219928918379038,0.06219748843690487,0.787819688633736,0.06844373167938808,0.8153332214617104,0.35102098114667435,0.9512164361150188,0.8984603902981049,0.9639900534763733,0.874662541389152,0.5654722655877569,0.054511946143596696,0.43446876323643846,0.014564658520730639,0.7566679211924087,0.38992426603564173,0.7955538300763445,0.14532236976318594,0.761316213375819,0.2844027896301477,0.555908009516257,0.852874089693172,0.35240364590384887,0.8896857353887208,0.2778323723871726,0.8579106179133213,0.30311718128698817,0.9651941246425606,0.6185193815970347,0.8831194433694356,0.4604560751278819,0.7553207525653028,0.19313606162841684,0.5709839732425752,0.039580129522313226,0.6409593160030582,0.0380382839738348,0.9607152942109229,0.8349468175381394,0.6235787986766432,0.047162828912002304,0.8017041856569923,0.3282709675938729,0.9526588227583901,0.8942609227818313,0.9564383421374876,0.8608566779099509,0.5635516756389738,0.05425220505743453,0.7442095399358235,0.337230584120485,0.7890441626258857,0.14350509662297836,0.8004968046537041,0.36147307699776166
5,3.797493391655514,0.620432381623781,0.9179834161676839,0.415902055384443,0.7151994259241448,0.019203542284060036,0.8887785562396496,0.4200149714340331,0.882020809555431,0.34019423728902576,0.49162986232502104,0.010619719383440203,0.9058184221775134,0.4108837205722039,0.9616523113027802,0.4743316984369572,0.8541852816872062,0.04122509604512066,0.8968834789080019,0.5125696662718178,0.9846517608929868,0.6877925263246844,0.8634685922521993,0.3828986915252652,0.6231494813742662,0.05385751915985868,0.7305042110998338,0.08841661998743802,0.7296411014505515,0.02052080457997646,0.9713619383443592,0.8698545136500639,0.7945220445944784,0.12693317130990525,0.6206353547833218,0.016109431676307562,0.6609051769101583,0.0806408826489963,0.7960332944623848,0.10003482920442197,0.8279155573627125,0.41674786622081067,0.959213095846319,0.9114903015574771,0.9697102352298039,0.9034388967372291,0.7012066818831572,0.10063388663401651,0.5283970242023661,0.020778951291249872,0.7539599695631415,0.4169043762805918,0.7692408678526089,0.1786937855952558,0.7999487673996956,0.3084881446724866,0.5946779451934091,0.9047585298493912,0.371198201970927,0.8791826499249482,0.39691643153201017,0.8834836313546776,0.341476910439606,0.9587462748552674,0.46906665013231824,0.8818114887457614,0.456502792101205,0.8439435979091549,0.31090231313843053,0.6223237329461285,0.05251911515527972,0.7024185070281714,0.05446914842116695,0.9589801088897314,0.8112059538982845,0.6686310797678284,0.05713384265295422,0.8078805977485176,0.37395718241884546,0.957745468288121,0.9033408340841519,0.9652557786999014,0.8876936696066766,0.6991635869828798,0.09746933093891277,0.7410477506063438,0.3739956945582963,0.7469084669899292,0.16305647683074423,0.8263925781616721,0.38255653424248814
6,3.711495206409553,0.6249265656209612,0.9009946644479441,0.4101968780016021,0.6945631122735882,0.02031869964596418,0.9635107596385727,0.6202405263678633,0.8704279908084226,0.32777118963700835,0.4967954185279952,0.020543319732630835,0.9066546241392424,0.45754916968432885,0.9594009051262573,0.6360188958723794,0.8032414261244131,0.02707566633518688,0.8935383121678492,0.5679020705323623,0.9775419642608214,0.7182719629916314,0.8169271240647618,0.31377564746404374,0.6384357158138229,0.06760498359024382,0.710273393205507,0.07838842236384233,0.6539395963685861,0.01334857867395767,0.9780219766975886,0.9063885489308616,0.7818001741635847,0.12219959549246286,0.5736137075937142,0.012777013486779277,0.643140462925288,0.0797190397644794,0.8497002950205317,0.10388607313175509,0.8689942041893771,0.4836818422423832,0.9663612696098963,0.9299843158539647,0.9514474110497804,0.8486084014166745,0.6359101184709262,0.08000493429561165,0.49988219569735715,0.027736707433799294,0.7337890569049893,0.40197892581696637,0.7561758503963543,0.15682065439987972,0.7894262203725835,0.3243381562753332,0.5997004141334038,0.8802548452580027,0.36968608926324814,0.9524314407567129,0.5298597482187797,0.8839769364235437,0.344453232228495,0.9554227180669009,0.57400228372789,0.8775786109382104,0.5058048074835069,0.7926912831315096,0.23068180056007337,0.6252810662682708,0.06800240317567527,0.6908863509380696,0.04770498225649268,0.9642062041235768,0.8455011391570427,0.6406396866320782,0.05163284036309161,0.845401715396966,0.4152054806572467,0.9653119749284201,0.9207356625796116,0.94049942797396,0.8146229546190151,0.637384354236384,0.07334966130822508,0.7225953712106186,0.3459648296517167,0.7513086161879896,0.15576298890985113,0.8203669126544509,0.3933106815099976
7,3.634347299755761,0.6186993302784631,0.912447196608878,0.4193187610614807,0.6590529783133064,0.017457222040339154,0.9245650481541418,0.5650349422477523,0.8297619932670678,0.20388671949476142,0.6174632026955134,0.040082486977551,0.9055643155343595,0.46133835320621636,0.9615464175760792,0.5006987798547466,0.8101578794996809,0.029975707484743278,0.8414375052154062,0.4295921922486766,0.9749362482379229,0.5259223162751769,0.8057068849014197,0.33534350135711716,0.6145980013354237,0.060450046315049875,0.6939079253123774,0.10435842275454393,0.6145383568126919,0.012512672657061678,0.9710263273178211,0.8813181830991834,0.7500669239700697,0.09045886348392916,0.5539967915821682,0.012366114559909712,0.6010271527642501,0.07479766550156254,0.8406867200893036,0.15746248886651643,0.860078390812758,0.45646833254556246,0.9484157003338846,0.9027990369291525,0.958058535310358,0.8739608117535578,0.5672241318816544,0.05861664212257623,0.4818258466395453,0.03109862791594717,0.7336181703568871,0.39760041381300715,0.7218246924197376,0.14239881634754287,0.7751358975747196,0.2994353123428332,0.5745880694334302,0.89849445346357,0.35886899288256036,0.9144826189511805,0.4884568233539918,0.866930287179003,0.3216281785762414,0.9538546775304347,0.4691537270848428,0.8240997026108734,0.36808137950399766,0.7858215834439041,0.23886035688740856,0.6085870518571986,0.06054842426562069,0.6708650679291889,0.04818736298878808,0.9560618568132301,0.8127782103424352,0.5894482273815909,0.04638503658815134,0.8272917363603043,0.38460795416722465,0.9491889989542789,0.8990669985669911,0.9514426845878007,0.8499675810327725,0.5548517386876183,0.052401151520493794,0.7123380428171345,0.32559870660024703,0.7032070123088401,0.14679390192307626,0.7979353588047595,0.3669615491428027
8,3.567185898530835,0.6232522617788744,0.9195951317182369,0.4366280261691225,0.6906278440200663,0.022719377381243296,0.9314464285930412,0.523371035342298,0.8620481699270298,0.2933256251295338,0.6448810297897016,0.06382956617481589,0.9208207906087013,0.5311214645396007,0.9717070866539712,0.669170916724884,0.8253576606155513,0.03875849357116103,0.892777620206336,0.5787620010765326,0.9878394826683431,0.740658792855138,0.8387367785783307,0.3926134321162197,0.6738760723919962,0.07942736021647417,0.6795742795351938,0.1155444712564194,0.6168880078692532,0.01317416136318525,0.9789593111477063,0.9079798264046812,0.7733727261976435,0.1005907513768353,0.5738642723688084,0.013547814358703343,0.6300841462943731,0.08250111006794786,0.874001265797552,0.23883308010137055,0.8502996707316942,0.4504900539893977,0.962969064899452,0.929766914215292,0.9525674255802979,0.858249695179343,0.5789999710708827,0.059796180845184926,0.533574595642195,0.04295380665532976,0.747245106230604,0.40057578355888895,0.7383429841523578,0.14651885585424265,0.7942483432034353,0.33580417678937874,0.5744999559432549,0.8902972878480306,0.35991762255315374,0.9102907364608896,0.42263071892923465,0.8798091433263101,0.3552599867384271,0.965989366250472,0.609387345938829,0.8693574096064747,0.47762072196097505,0.8093414611207472,0.27460993960884483,0.6389803977523092,0.051666476717466533,0.6141831588543198,0.038311642036203256,0.9588573759775185,0.8280722179874962,0.621369663691061,0.06321921745569514,0.8118797583767625,0.3486346031282487,0.9602559031181196,0.9190660997769897,0.9440159750816783,0.829339543835484,0.5851954992967651,0.05707402806021267,0.7229233700775567,0.31339734452333046,0.7157547929876912,0.14380084285016503,0.8061563312391691,0.3807505220062973
9,3.5029897798789875,0.6926036893432029,0.9182884572144713,0.4894135855403443,0.6925958827838286,0.018422611734222064,0.9684732264568637,0.6966794792515308,0.8624274797797989,0.33845486829915156,0.5229201676532763,0.049821059562974085,0.9312514888418197,0.5475767407250769,0.9587849673523248,0.7220550389323943,0.8435863989174227,0.04319412325738761,0.9197674465839123,0.6421902545336062,0.9850782112002212,0.760802382674881,0.8303876280596109,0.354644525706138,0.6524361192404633,0.11227042954970294,0.7315224709278494,0.1346226347333498,0.6474894870147812,0.013666337921972114,0.9833321233912188,0.9264850594379079,0.7734321245807173,0.15512145966465568,0.611713311632028,0.018882902871720147,0.690214656870599,0.11408741231171556,0.906397161424072,0.25916670181964585,0.8343363753809283,0.47440352033377936,0.9660910894666925,0.9256070461351562,0.9696068621954969,0.8989330440080502,0.6051411656498138,0.0765025358443826,0.5218379379722022,0.04769086352452793,0.7661394761577943,0.47781871481901206,0.7626743722856154,0.18711153111224937,0.8021510034243777,0.3648317255502128,0.6266631421270596,0.8771276177673464,0.3904742725976245,0.9495806628386266,0.5620441005934854,0.8897878877603127,0.35734844751401584,0.9451976973357593,0.5991439188493468,0.8952249825832226,0.5349779745346712,0.7922429101690955,0.2149362250438597,0.6189366693384923,0.05883587894026883,0.6839351879080162,0.05109229843455093,0.961037028234746,0.8280751614962678,0.6638649772448475,0.05682851969643298,0.7998505095287555,0.3570440307476944,0.9620421080299233,0.8982267015760024,0.9589072838713083,0.863168906475779,0.5886290314758232,0.061585243255468304,0.737403701088012,0.3750116317543031,0.7491522566206639,0.17687641825802616,0.8170575319871844,0.39910435811048733
10,3.423520322300379,0.6799436023968981,0.9154096130545876,0.467850301542031,0.6896864271338937,0.02241752142420157,0.927116414114791,0.5713172913519075,0.8697165360016984,0.31994860614645537,0.6799174963477144,0.07053576399780194,0.9301954512588346,0.5588071499511611,0.965695511681758,0.709462526818494,0.8146100221735326,0.037885087438039436,0.8744145319188372,0.5928357237145114,0.9839338303112751,0.7072313191639885,0.8436583459165548,0.4255722360085519,0.6522915719557689,0.15360476238339124,0.7232890797246915,0.19390566787211055,0.6322919851457554,0.01967496979382931,0.9808885123545132,0.9026394414697453,0.7535727724262492,0.10848625948661741,0.6135826690404189,0.02238384573709081,0.6354291357994095,0.12182517302645642,0.8613372104612687,0.30343799972302904,0.8443161631905787,0.4992688717525253,0.9620126955046099,0.9335643424113249,0.9720904986691825,0.9047080424943007,0.6433385979824136,0.09432157859585624,0.5624602906845024,0.08869067010384804,0.760618655257818,0.4931758394448413,0.7640180460087401,0.22512675538165305,0.8021496947738229,0.36725683643206786,0.6037536346814697,0.8799419463423757,0.3935634604491466,0.8973064735174286,0.4232153457305649,0.8756191792147455,0.3367993597320129,0.9576817210950759,0.6001804971090153,0.847401315418373,0.47022561618034925,0.8076058899150572,0.274457733841846,0.6055294201578755,0.05421543020476264,0.6484653443509969,0.05028704468210722,0.9530183343389117,0.7923951081232421,0.6051220998465289,0.05603152408258848,0.7944061187648167,0.3632016874620935,0.9539980038207806,0.913941433387038,0.9629653260000436,0.8679387369621597,0.6409240021339542,0.08014556346385895,0.7155343800759476,0.3596369149848469,0.7402251398731816,0.18696661592680486,0.8053590434291308,0.3889501295201523
11,3.3443841858288894,0.6666079191634355,0.8933404772531339,0.4449047177145587,0.7245539975361076,0.02713189973531526,0.9556127025359558,0.7176259626053352,0.8427988798050744,0.30297898195031914,0.7568116884396368,0.052369288370370026,0.9296854640722467,0.5348011164341107,0.957895797005145,0.6659673477930884,0.8592656744504319,0.06238568833431753,0.9091080125095392,0.6486722088307519,0.9711679720007836,0.6951196426737191,0.8619265087412101,0.48396433468105815,0.714480122828892,0.17654790505082682,0.7785081737197479,0.23081525781664194,0.6914233502712643,0.034434027546414336,0.9874274067600273,0.9431669687856473,0.787808280295863,0.17760808538161557,0.6433159521103741,0.02760735480324253,0.7519232481594912,0.16786718489248897,0.9136077971135829,0.3620594510231157,0.8770030721668781,0.5653801602036785,0.9697537854877438,0.942997721977983,0.9588074459394181,0.8894626087530658,0.58864354295912,0.09295970201441232,0.6762522902116845,0.07646442079762193,0.8006333477560277,0.5233173457573477,0.8102847690144344,0.23302554196137787,0.8312322984286081,0.387678266380324,0.5967926689576174,0.8312804056709371,0.3377794614819306,0.9155269412213196,0.5545296826538454,0.8897349634035225,0.34046272752661466,0.9467065708084671,0.5394627238489437,0.8810885759836656,0.501825701536718,0.814606095381783,0.2682435757912475,0.6473309720549417,0.06589132355689041,0.6548046668235017,0.05917553978799922,0.9579748576350884,0.8164111525596784,0.6969445831054278,0.07599905144349313,0.8101984430282614,0.3673880694608727,0.9668646939729312,0.9266726004334647,0.9403686143003848,0.8520031345812328,0.5695024976962996,0.0647665397375182,0.750135438894279,0.36891479791034754,0.7930430436404327,0.20916867721649302,0.8166319602263277,0.39679342247045557
12,3.2612614954082377,0.6604981788273998,0.9130118714365911,0.45295974082266427,0.7478941534346514,0.03043875646110515,0.9578148613820633,0.7514727878940615,0.8290310654473774,0.3359457553258174,0.7232153764739331,0.05096416582234718,0.9406833714916961,0.6365893124582629,0.9737650274198848,0.6796679758797238,0.8784260410703829,0.06636307311361814,0.9247352114143245,0.6986542713223578,0.9778272574540008,0.7496779349342161,0.8622099325273286,0.44565642163174035,0.709422482542553,0.1526344389433527,0.7816246741648353,0.2543210210946002,0.6669556888143349,0.01491390427583822,0.9929170918081139,0.969771408210428,0.7765619624580717,0.11564885654083851,0.6474069875267942,0.03927487066431805,0.6899231060942252,0.13490634279628133,0.9082753757525017,0.31714360082917087,0.8319815099872316,0.5232364361006677,0.9767021946029071,0.9532940202227451,0.9484854548546643,0.8562507500098125,0.6257897789714134,0.0868199129209529,0.5636408270865552,0.05004521767178964,0.7385152072391978,0.4976445437876578,0.7060166882804669,0.18760177950063278,0.818955123066773,0.38661143458596153,0.5761741122565864,0.8579667939583001,0.3091596988684377,0.9141165924090444,0.5565422087339394,0.887644451310307,0.37669785822864765,0.9579630480150924,0.5584761255738744,0.8869983857700554,0.5384534456096515,0.8008416270998487,0.22560914950162933,0.6239568339285491,0.04972028673757588,0.6596652061400929,0.04755470957039845,0.9584206411910133,0.8229684425554935,0.6574855025516569,0.053902374212044024,0.7722012019437762,0.3233869828487778,0.9699763467625626,0.9323999333618224,0.9310303890105867,0.8107727307915885,0.6197351956932926,0.07044580908335525,0.6865079944046119,0.32506167927177176,0.6765562103692652,0.15497250631554205,0.8038166512848784,0.38475774632903437
13,3.186423597513978,0.6980378333920808,0.8863512545670588,0.4251929667810627,0.7224655503618149,0.049244672445170896,0.9674041139349095,0.7282663692656246,0.8385973308885111,0.34397325800229106,0.6181224437519881,0.05692932532841327,0.9486280307772065,0.6865736957312403,0.9691881216672837,0.7276729961031415,0.8693245845478332,0.07521413510157943,0.8967677330353679,0.6614626344851098,0.9615703576171181,0.6244788862726174,0.8679096598566397,0.4992737042478969,0.6826989931674444,0.16233750074461797,0.8096368855925901,0.3011987170068457,0.6970990140115385,0.02186813080082712,0.9928238645447415,0.9686812550851,0.7584799926894298,0.16504630460494468,0.574673531103217,0.024151231514315946,0.7011506926330082,0.16323926778007675,0.9069118526492046,0.35769711644994673,0.8684628838998447,0.5664932717433948,0.9559283669095745,0.9241015328382065,0.9411689841352084,0.8468229612336806,0.5834649495603393,0.07254047771279215,0.5252555556102798,0.07156372653560608,0.7720693221830986,0.5143084340197777,0.7363373537066078,0.15985322641554164,0.8097112085923792,0.3922379153173009,0.5880694334302582,0.8279638668831257,0.27895177846471364,0.9270913249624742,0.542789625883647,0.8878107339177899,0.3745567608821083,0.9512071214475393,0.5851191138292838,0.859314170545282,0.48334433881352046,0.8162635925086897,0.24476425901212745,0.6071295779494648,0.042908571250045005,0.6549307475151444,0.042966749236805074,0.9570738826756665,0.8082772566846953,0.6518697327265293,0.060162604020196284,0.7833267354573034,0.3207989740205525,0.9519803556355904,0.8979503975499689,0.9255059185554537,0.8112662559589485,0.5700777923274649,0.05406240301318191,0.7171609199879592,0.313590405658713,0.7150530399104811,0.14265073647159077,0.8002349695628724,0.37526001442188117
14,3.1114643605583745,0.6257490306661967,0.8762759096488545,0.3128980619423827,0.6676083918476975,0.027644584909505672,0.8487618840573501,0.4708510936370205,0.792159063217205,0.2114112556504973,0.7631627244501868,0.03246075533663867,0.873573706452714,0.4921627729259734,0.9491651763747478,0.5464867025021111,0.7991870253032686,0.03782562233800914,0.8721936466919246,0.6081390379603708,0.9676301454460597,0.5466655471847056,0.819075215905585,0.3603338570360282,0.7599232559684579,0.16357893017944902,0.7854078081459336,0.2655041265337341,0.6115856933515831,0.01543146498045585,0.9901827358447072,0.9593217787635424,0.6652249344198846,0.0981090283438964,0.6438586865298733,0.03038270884833897,0.747758293672246,0.1300017398319825,0.8577645716222142,0.3145752486561728,0.8822334255198535,0.5748728227305613,0.9486147485736267,0.9022354552373273,0.9264986269831809,0.8062681295420147,0.5712409116701747,0.07400074832243103,0.6911662472049567,0.054020096565139245,0.8018792335581284,0.5429722291298635,0.7659836021075146,0.1729214929268556,0.8030044486372281,0.33657981892365424,0.5429553264604811,0.8172126926652374,0.19809770138133703,0.7483052286102309,0.2679108201881303,0.7840171303269439,0.23009714365155412,0.9270727401242009,0.4782555712534915,0.8262356592599788,0.4445245212630052,0.7413609761996128,0.1701525207247451,0.6778483270314617,0.05930782778184761,0.6217086690584014,0.038671836521992305,0.9468453260807844,0.7856830411169721,0.7113663579542134,0.053885912085720036,0.7945951964922414,0.3126395107467141,0.9447754315761898,0.8772020230813413,0.911323125117525,0.7705020228579276,0.5802887627916,0.05832316648532032,0.7368336946642995,0.3550412505541612,0.7389536740022379,0.14689221983744852,0.7817964369971975,0.3279491930957318
15,3.032771207823791,0.7027963811538009,0.9322113003539181,0.49854607512510574,0.6657821494502486,0.04686122545044327,0.9416105783439644,0.5918107217475774,0.7608942342616073,0.23880131655892245,0.7522240237349298,0.08897232436907006,0.9102908819733437,0.5049831694601823,0.9610375751773609,0.622536203834172,0.8746680549798331,0.08199097218368595,0.8831190966076381,0.5622316794823876,0.9539519217952923,0.5830198522012942,0.8367019089492549,0.4718682717917941,0.7174867063505328,0.22947645845066308,0.7906108869753719,0.3048406758798674,0.6563179064722419,0.019874612301085944,0.9948064777751638,0.9790382588383721,0.7757430173303519,0.20813160140272544,0.6674618002911241,0.04336960316528629,0.6705862547965037,0.14040714119578973,0.8849716192241757,0.3032686967989862,0.8736160296976132,0.5997234420849131,0.9639410071373455,0.9367790170249977,0.9169210023809395,0.7946447299713061,0.6041381244904338,0.08402385894566408,0.6067065339985619,0.06333491257145187,0.7995824518083074,0.5639534444503564,0.7657289756139377,0.2015328705920888,0.8138888661526923,0.3755392744568535,0.5769671336681645,0.8555621203949383,0.28734384966274495,0.9022917609778179,0.38306055080978463,0.8204180022914817,0.23546531216030653,0.9300912804976743,0.44715950005222904,0.8502019790298891,0.3973652575724245,0.7629579212665927,0.2052417871363218,0.6126749451296536,0.041241590774577404,0.5917808622007882,0.0333623881581485,0.9484395373196627,0.7851941867850806,0.5801262818027816,0.03668535670833767,0.7738270322664713,0.3120010442364384,0.9605968424627285,0.9115540984077982,0.9010094337717223,0.7512997572019926,0.5872322615063776,0.059206366581990966,0.7147469694515097,0.33335812385855723,0.7195319656844461,0.1597527626652454,0.7819680747534085,0.33620574579824863
16,2.9662812211905423,0.723916108565386,0.9013627703256423,0.4682236530177656,0.7048737255090565,0.0496528109156381,0.938472424708339,0.6998519991306353,0.8410307085472574,0.260379011718127,0.8715931002063294,0.13643882269497307,0.943524227070501,0.6258800555543427,0.9615561298692161,0.6184892283671195,0.8553458281518327,0.09870898483984025,0.8683307562111874,0.650391669831775,0.9839185535673297,0.7060582305418439,0.8652158115120007,0.5085748918342399,0.7507062055415904,0.27156823512779454,0.8396914024496854,0.3678960322219996,0.6592056962722004,0.029144486570462903,0.9967361364080194,0.9857032501122561,0.7257141916444483,0.18069321636575833,0.6711410245474232,0.0921861913076657,0.7475254925025272,0.22451436654726623,0.9052696049116933,0.3427113888659298,0.8909420182286204,0.6142135355269167,0.9543517009758639,0.9250478435696989,0.9410747455914197,0.8423244928245328,0.5773668492352864,0.07669409607671408,0.6796627663294555,0.09672661631750955,0.785764632818095,0.5708601934267671,0.7057564399668578,0.18728688346416467,0.8294666516577645,0.40885462256814376,0.5809322407260552,0.8144882090365315,0.27591731930476915,0.9000866669843465,0.5241566939550838,0.8484911551956699,0.3051260044594226,0.9359226366838517,0.45723050871552645,0.8159256299919444,0.45631863949453977,0.7928475951381395,0.21706475827713573,0.6069214273424287,0.05060741652691955,0.6258902840675175,0.038691641658536696,0.9530766725692731,0.807193044686109,0.66298377932016,0.06193181015102793,0.7771485135537772,0.29675271792423263,0.9505072542939887,0.9103576358792659,0.9241423171352448,0.8077906933046047,0.5743566613317814,0.05477598019739642,0.7021666713235257,0.3171402110247806,0.669815441999254,0.14764698445530502,0.7846731822479647,0.35804387875091603
17,2.88283954035338,0.7689754435436494,0.8869150186052268,0.42189490335460506,0.7218889426349592,0.07641997434038231,0.8979618479574041,0.6057508308499128,0.8174461896398684,0.2889903074908526,0.8760949115710599,0.12654780610994826,0.9378566888274971,0.6867177757928425,0.9516751351916518,0.6758710486590738,0.8888395412644835,0.1319288673302606,0.9235216397361218,0.7570120973779496,0.9751193018222483,0.6624685462131796,0.8400601259491651,0.5101093986632901,0.784382615174023,0.3212619272770996,0.8527168286562277,0.42808097511059445,0.7461431110359606,0.05455990959843542,0.9969741869495766,0.9816655396412266,0.8017134148963619,0.23432646140512678,0.6956577394137344,0.13010801918714165,0.754055307765812,0.2757179516583052,0.8910671072040824,0.3989980386903665,0.9119055609877834,0.6800977909528353,0.9528504292153908,0.9267428390226498,0.9257903112899137,0.827662825863772,0.6273823437605354,0.1289286705658167,0.7201837833311991,0.13784086283852298,0.8317136660002388,0.6199614853715492,0.7505954807984387,0.23506038737103258,0.8446350472953448,0.4355663554129527,0.6204951978147855,0.7952432318162231,0.24289087574834853,0.8281483047818731,0.36644724494027847,0.8382020165610325,0.32521996237071776,0.9181235517104269,0.4871947296399617,0.8692468839868487,0.5325877658497018,0.7544780768314474,0.20733636738715178,0.6172731431161321,0.0680433838872595,0.6511722196083043,0.04457586090181629,0.9475388256842185,0.7543515494187747,0.6390809122240573,0.07257623131447462,0.7746158245389171,0.30740109367944796,0.9489870429142027,0.8956147553627709,0.9161742691774334,0.7845686655250661,0.6193002570444736,0.08337858451036721,0.7411549042437383,0.35613513245283746,0.7116026855650877,0.16899491652791596,0.7856463843627761,0.35608231996980566
18,2.8513399391277403,0.7775819527670074,0.9255777703654525,0.45947119133122644,0.6959664511993903,0.09134543191944214,0.952200806243027,0.710299303234309,0.8078116898152436,0.24565033614426338,0.7792799297410045,0.08317914892307009,0.9246909106776106,0.5966015636158907,0.9571114673937012,0.6596492474636463,0.8421371140193311,0.11335009841665561,0.8591952320033025,0.6348845608654531,0.9699688239847934,0.6355842437534671,0.8750362063341232,0.6080255791576528,0.7747528411180119,0.3219397631879715,0.8328304003029641,0.42583035208898457,0.6975514361504439,0.06538731883272036,0.997735231591905,0.9877643855117215,0.7982508385654081,0.2665291308659329,0.7462501410217957,0.11953024293380252,0.7379072705717997,0.25489945507367906,0.8121693975999681,0.29355481385080195,0.9125559761498305,0.6995231154245876,0.9444652275323833,0.9139300887204167,0.9295072719742012,0.8171121096234082,0.6352456042656602,0.12990140259433158,0.7256247906795772,0.14619289826837661,0.8372756773693005,0.6315126935823001,0.7715977110163993,0.2966513378251083,0.8362575468341011,0.43108845435420073,0.6231386025200458,0.8380511641899455,0.2753041809575192,0.8886576445641037,0.45349489512904434,0.8322902228687576,0.25784498972828224,0.9206537937875943,0.42736367303121703,0.7985021489548544,0.41108903538507935,0.7700429186237071,0.23991115959982534,0.5772163213576791,0.04457846092316982,0.6154213594659765,0.036102302219169824,0.9503501203486334,0.7753811939279742,0.6060623762008188,0.05720723322301268,0.7792031264407056,0.3555832214232038,0.9426617597476709,0.8989348982371803,0.9154297820226158,0.7802131116316323,0.5815864978902954,0.07299886455952004,0.74118570145166,0.3583367356307829,0.7289087653860501,0.19174056194534472,0.7803889814563167,0.3522552823469974
19,2.775811801070459,0.7686229585242628,0.891037119874271,0.5679929429052648,0.6775062753418373,0.11662684580334624,0.9426336009568383,0.6960696201663469,0.7844918895689377,0.28642050920989215,0.8344221225760506,0.09080336552612356,0.9359182364373527,0.6577106327813099,0.9063894129067457,0.5590107195054117,0.850711647574619,0.10880341892388537,0.9048531274467656,0.721801333685878,0.9454125274647213,0.5858711996480529,0.8450000056912407,0.5820989536296188,0.7997371668126331,0.33542382502772305,0.8324705034384542,0.42803233624239323,0.6032170561973952,0.04111945066595335,0.9986270699542148,0.99331777945708,0.7614009955276512,0.20565513677653172,0.7125227904980203,0.13487519025703298,0.7320420714902387,0.2639440413075363,0.8905628313997529,0.378532845661369,0.8900228852767262,0.6707760884447094,0.9558629228567813,0.9209741016764654,0.9201496940987217,0.8073102157913167,0.523951215377503,0.09973854798705808,0.7089818777765738,0.13923639600380708,0.8073477187276199,0.5998748123413364,0.711190659025489,0.22347198506471247,0.8217870547806599,0.43136508824962144,0.601022116486034,0.7748613027110679,0.3189182457096027,0.8736970169879202,0.4185729376212905,0.8120024931663212,0.2711973266292072,0.8454218520968491,0.37656959887490715,0.850440361209497,0.4867128460415983,0.7398648704003061,0.23675618897430556,0.6256579195850418,0.05151386405279043,0.5906792183732283,0.040106662685754094,0.9450330825882621,0.7613665618273402,0.6021834458257439,0.05880359847117897,0.7379126466614493,0.3011991538979914,0.953427250931966,0.9090046341029541,0.9041295473408499,0.7741650406400884,0.5023717930064504,0.05334233368002182,0.7146688236870513,0.3313188167512737,0.6877551659828423,0.15471032962312864,0.7600066744096778,0.3465161337239646
20,2.7341805391566005,0.7473269886029844,0.9266905642173762,0.5652333095756529,0.7432092084282881,0.11032820180274631,0.9506138937098658,0.6585901142903187,0.7920101281742095,0.3159322486481042,0.8556177640412432,0.12335969828119007,0.9436539412424976,0.6814482893177869,0.9560309747822291,0.7516929121419998,0.8746426683686115,0.13255004986129437,0.8913018194504153,0.6981604902912619,0.9656385163379048,0.5861584985261162,0.821098836964836,0.49964986917660703,0.7707535428839802,0.3356443085380646,0.8343609096468974,0.4199101285628955,0.5808567465806825,0.05181004600616332,0.9989301708623793,0.995278027261624,0.739979143373183,0.2220750736252344,0.6950235403212269,0.11650208712886152,0.6944618103783144,0.2639159530622297,0.8709193477654187,0.3361850540860337,0.8535222135091438,0.5646853226871863,0.9282711110209931,0.897171566145659,0.8711967540783232,0.7286232675188349,0.5277431022347124,0.0842914502152863,0.628522370196712,0.12004008306914242,0.7685440849546431,0.5762874202725403,0.6623541685199794,0.22165162139846892,0.8133056666170795,0.4252759650573579,0.5706229623755397,0.8425789158438785,0.3247804830020882,0.8844325546210479,0.4215129696791712,0.8199810187509564,0.3243328985254616,0.9159576064587766,0.5125998575603097,0.8292456021512602,0.45611455458498495,0.7409495512010301,0.18188215292479354,0.6024273046594681,0.05283104576092131,0.5971027171675587,0.03592668064454815,0.9444270544225548,0.7874242712320312,0.5780067601654727,0.056307413732290125,0.728694893129649,0.23530885639873592,0.9296263383010087,0.8883584653663525,0.8624482088234018,0.699429353686226,0.5256466365973131,0.053692629546042224,0.6696113041375344,0.3054555046469398,0.6422548302872062,0.147310357151319,0.7570869560448823,0.3427042184026384
21,2.6913809237896436,0.783632945599812,0.9005231692667407,0.4904600171275716,0.6852930519896117,0.11803681249196613,0.9226368936539626,0.6624627186256046,0.7863856992084891,0.25771767668489715,0.8913134716557309,0.17409143191975163,0.9530592336758107,0.6826271260502527,0.9189846714246993,0.5403386394791899,0.8511542409348415,0.1382420105326087,0.8284309877132602,0.5971700575759655,0.9471914279134375,0.5586556181920139,0.8332388643176082,0.5717171572903919,0.7908910035650296,0.35824290429821504,0.863784069861671,0.48421068636367,0.6814840019337041,0.05852923689109417,0.9993915603568357,0.9972349408086298,0.7753705007740604,0.29480241098873655,0.706946912516957,0.11888489159295632,0.7034577583484235,0.25175211440169126,0.7975142526810988,0.3225094941864916,0.8502882738101001,0.6095411976436217,0.9434269439217434,0.9126121799179054,0.899263242653083,0.7650637033400236,0.5527422608138898,0.12188981599681928,0.683138716644175,0.10579999355068052,0.7564373134996418,0.5395301260876304,0.60259463272591,0.1746592656034271,0.812497813686943,0.41949162414006946,0.6053396775046259,0.8162111180072038,0.2590655481766484,0.8552345667246433,0.4532063137344454,0.8505670058116664,0.3083859552451899,0.8705748816998765,0.3340696967504908,0.7658663532709452,0.3780180117806297,0.7165904386206662,0.21369887455309666,0.5723944454003332,0.04380965900999376,0.5974861053931659,0.04031707440047638,0.9505270261846491,0.7965712624174778,0.5903229532311254,0.05761635630469939,0.6954756033532197,0.27902345536461287,0.945196683974825,0.8977951259119021,0.8859682098504966,0.7411584574094997,0.5391603860516999,0.06069838525596874,0.6552920820963408,0.27727313171624535,0.5853752331219694,0.11256603606185372,0.7432651932995517,0.3283295840058269
22,2.664673608557596,0.7827811068029609,0.92369198061264,0.572299748517755,0.7284113442642358,0.15636509861123585,0.904426145794649,0.6833201304141137,0.8047183090707738,0.3900108860559448,0.8917243009989951,0.15955001742901903,0.9406820547822102,0.705068464916888,0.9296550129059528,0.6852311587854427,0.8746130049632743,0.15654925975956668,0.8792063929727031,0.71017031698905,0.9262535809642602,0.4820240433159693,0.8271241953255228,0.5734563023663974,0.8265169865387958,0.38509453051345105,0.8618720803609452,0.4828074860009631,0.6885463727481641,0.07405653264784645,0.9993389317095669,0.9970011530093212,0.7632411359336027,0.265991539462624,0.7925512975381034,0.2125319654965009,0.7901563827359293,0.30314357949769183,0.8580034784515409,0.36054657214850927,0.8987363562336698,0.6597119132350148,0.9455712684480599,0.9184702598368282,0.9079834430786722,0.8132150132180969,0.6545769296706144,0.145607506384913,0.7479141219870172,0.1434285474933109,0.8106474770231559,0.6373047702858847,0.6534759386018715,0.24289300864588806,0.8396014816813433,0.4583019155783934,0.5971451229183188,0.8208044578270803,0.30398020027800554,0.8114655059445808,0.45200500101657126,0.8159809386492275,0.31835659850669146,0.8670871986503563,0.43990456847569387,0.8116894413207877,0.459074062101737,0.6995353895953879,0.1983092793451925,0.6103920029879684,0.04905940900538011,0.5894647268129154,0.033767132836742965,0.9458086674571493,0.7813430045117116,0.6568957139595027,0.06329681019363108,0.7659222497144307,0.3173806482259724,0.9434879020639674,0.8954113211319533,0.9011958295567506,0.7908311398722352,0.6414566176827198,0.0912700248759793,0.6844701483179769,0.33292503816613467,0.6193520328235733,0.13561609322639717,0.7615630514602734,0.35390814573562684
23,2.6177546046844955,0.8123898484314417,0.9208293690728718,0.5749150966089207,0.7462743337131525,0.16721164091688634,0.9609145140787335,0.8073294462376427,0.8358655904055913,0.40874000538090227,0.9304775134620852,0.3177256027136953,0.9569234468396649,0.7433027615779177,0.9264827723245235,0.6363946132274576,0.8989535562091374,0.21276042761192906,0.8811816635472915,0.7361320654638539,0.9641671749366684,0.6256791616048129,0.8496179788168005,0.6602125478054027,0.8325203342904706,0.4241542672748162,0.890800457203052,0.5648102757328745,0.7050576965238791,0.1107984131844312,0.999510329523809,0.997503597066065,0.8048326363206331,0.291003340768674,0.7571052146420523,0.1919537297300088,0.7557945086443689,0.3211775863022796,0.8817024977076107,0.4288670870427389,0.8907839619120151,0.7136632327610976,0.9444472377146201,0.9136626408668236,0.9139223444328859,0.8125915823638463,0.6104803325340117,0.1547732177131123,0.6625435263349718,0.11173062582734537,0.8260443684351872,0.658440063709721,0.6906948960569947,0.29533199443562813,0.8476126252185802,0.4954178855357263,0.6289540928716186,0.8273169290645015,0.32101997385939635,0.8709498820614233,0.5255909794774758,0.8268261406271679,0.3226649404708397,0.8588050565396833,0.413437968526978,0.8116288647792619,0.4926778433072054,0.6955608209362402,0.23815172824244518,0.5887183210303455,0.04607823537809906,0.5930637240486973,0.04256295622336589,0.9477539374355634,0.7668945635186901,0.6075469706705469,0.06885713459880988,0.740420950840934,0.32954435136907084,0.9451505735038717,0.9010546184996576,0.9098607675936563,0.8005414211488174,0.5840510209030505,0.08144934661424545,0.7054070193409218,0.33576143929263647,0.6628795225662066,0.17413476163640645,0.7609962813713795,0.3662763913852587
24,2.602203048559939,0.7991129127012102,0.8683186792681942,0.3575817451577711,0.6876758436797088,0.16072958283706246,0.8316996875732217,0.517495325952086,0.7764875746015463,0.2474680193516572,0.8699860945737874,0.13398996581009137,0.9492722674684648,0.6516339759243547,0.9289326982682882,0.6322731956841534,0.8515862519711634,0.1427723493919166,0.8580371923529957,0.6835467324791584,0.9450941601209001,0.4794946513089412,0.8042688674002519,0.5238660977920991,0.8098861881426412,0.3868339279045126,0.8445146697466086,0.46627891109563063,0.6411031440407615,0.05245244130733285,0.999080039522487,0.9947680386672415,0.7107320245979186,0.19573786856331687,0.7412994917712061,0.20738542295055767,0.6972707151617354,0.250331253682187,0.8265659012079895,0.2890643675053456,0.8340124155987767,0.5902217438415667,0.9388697308666818,0.9017167258973551,0.8829201062013246,0.7389090430419414,0.5697874542860851,0.1141749174873065,0.6590185396329752,0.11100998299833117,0.7568740040880879,0.5608540000387453,0.5875534112759244,0.17930116395767348,0.8027248905161434,0.40653428656262824,0.6161776367961935,0.7712517853803434,0.18656543577624865,0.7495800671892499,0.3343125489633613,0.841340287879893,0.3062404848355402,0.883920795023982,0.4031785990187529,0.7901881616924415,0.4314943071993286,0.6794016166659402,0.17028884771413377,0.6008758272517826,0.05030157014395535,0.5639162941833794,0.04170217267482483,0.9428473738795446,0.748498711996076,0.5730187816301929,0.04944831203220646,0.6882651218365439,0.26441980786004604,0.9394434357507302,0.88012578852081,0.8777349725933221,0.7371750627905646,0.5524707308792861,0.06310138208419494,0.656279141212803,0.2928651772237173,0.5740720626631854,0.11767891110741935,0.7302879034820389,0.31733731999632375
25,2.576748600746767,0.7988485489366702,0.8818804678038393,0.4678679121430812,0.7185024777657749,0.17386346789677987,0.8878636928066017,0.6042781917599822,0.8511215233477879,0.37750096751667134,0.9166880596300706,0.21563324656541277,0.9603658009143302,0.7102709058784545,0.9164215427581228,0.5578988484945582,0.8127474235056992,0.1556740705781381,0.7923173933075907,0.5911596466748061,0.9726515729890363,0.7126912078693952,0.8023512875461192,0.5604475212962222,0.8152829334862078,0.39791200864571524,0.8916318855236687,0.5846164984464669,0.6977759537307501,0.07678022377575004,0.9995047253699464,0.9960607718357364,0.7369398813107423,0.2415473321709789,0.7344270937953161,0.20234469989522277,0.7504582901566348,0.2886451863964013,0.8567518837459633,0.3896650849657305,0.8444997886271739,0.6257920238529324,0.9328199900963858,0.8971765849936499,0.8741763450898468,0.7166765083715794,0.5629981957010881,0.12520543190736452,0.6989010369980003,0.1595303602702151,0.7857040164717117,0.6110529738559776,0.6093938212975789,0.2048767999073312,0.8193914262990766,0.44789109522940596,0.6034011807207683,0.7765614455414955,0.22405616622017205,0.8170352743561031,0.34900839590376204,0.864087390986553,0.30816215583122003,0.8726967350208715,0.35219682481119247,0.7242850946228468,0.35564265656622135,0.6707107346369383,0.18286599184197366,0.569401441107227,0.038524545983492225,0.6269919278950773,0.04176046530463569,0.9425907526938762,0.7701822125853665,0.5843744523628717,0.05268765387262542,0.6860245745798759,0.2752166778274425,0.9355227419363391,0.890643730040201,0.8708119074731637,0.7185523809880688,0.5472070420485959,0.06885313789142557,0.665563346656538,0.312915842095652,0.5820302872062664,0.12465642855331138,0.73349344682029,0.31662032914479765
26,2.5502233124272324,0.7855422394548232,0.886210082187592,0.44663933675004136,0.7501789651651474,0.17932971834090336,0.8788034274536817,0.5323919573002007,0.7716785977633157,0.26139866842047044,0.8198531626400044,0.11291171270481432,0.9317906813763112,0.6532588571324502,0.8891467354059169,0.4307194095555572,0.8656312986759485,0.17534808750572115,0.8571499407268219,0.7126242378310212,0.9472267935756709,0.5791277936693389,0.8226512902511324,0.5382767944282387,0.8248141490142267,0.4381561691609962,0.8731943671597331,0.5137236618333342,0.6728438203082957,0.061533830570272056,0.9996431145535941,0.9984553726940246,0.7466848445428743,0.23800561123012037,0.7305208588433736,0.1834489725618929,0.755425783721914,0.3135490253074767,0.8850165699876412,0.3717631318667183,0.8358061963970883,0.5816439442052216,0.9234722607985376,0.8908167833421656,0.8772186554031638,0.7326099060029114,0.601247374007222,0.12422042959815816,0.6392533355825019,0.11290550412864397,0.7864869076748627,0.6123613257178535,0.6104214060917001,0.1860687077697161,0.8147065622810874,0.42235726729339473,0.593620583311305,0.7797939664307842,0.22732061637180764,0.8216917633604155,0.33160231172985105,0.8142215613829564,0.28103489308415874,0.8019005095621683,0.24597481312559846,0.7766279679848482,0.46181089678080145,0.7066849434835426,0.17248722137237052,0.5674105812689633,0.039424310316880894,0.6036122301946716,0.035473502424801254,0.9485193244849455,0.7692491798889273,0.5928457349356642,0.06386596297310553,0.6751398889423155,0.22966133922743281,0.9254079038301591,0.881198472581712,0.8762981750122555,0.7305880673769048,0.5743618992191668,0.06962308541858639,0.6670261624173861,0.30142490240067826,0.5862429690414025,0.12389536702560199,0.7323615988469778,0.3102896838812012
27,2.5428146761041623,0.8085418869698038,0.8860340500728,0.5216751775331893,0.6625899681469752,0.18692887509073056,0.8790522769805307,0.4968994553410985,0.7230190368017082,0.24041188519237838,0.85069104901522,0.18449825643815432,0.9387026380969482,0.6807704368182276,0.9285269994316326,0.6461252178842599,0.8058776858815349,0.181331392006632,0.8534336109076968,0.6784585192845076,0.9262357835575642,0.5507533786153347,0.7896233048137451,0.5248940306374015,0.8199324202924227,0.4125943029662032,0.8247856906036866,0.47349325097639183,0.6392879842125125,0.09228587120067051,0.9995829972667067,0.9982595257190955,0.7195783521114647,0.2620856549473623,0.7502344126201437,0.1887050832480003,0.7037389171802725,0.2944099419663448,0.8439449527568472,0.3481802937743819,0.8637702511840643,0.5952592439303422,0.9336390140589919,0.907383224875089,0.8916592055728138,0.7795197168093826,0.573278106860557,0.11557489232171624,0.6275504462218895,0.10647474228397068,0.7805835297803773,0.6116587008773553,0.6575710233472842,0.21815353756645647,0.8028047579913995,0.434491715704026,0.598995506212001,0.781703340931081,0.2714037894651895,0.8014218150627814,0.3057427599168165,0.8035372780574186,0.30203656108146143,0.859899647219216,0.38176225364948213,0.7836915524255224,0.4201567424363364,0.6537186855765964,0.17318443159599317,0.5698294927587929,0.04445430949289622,0.5675189672410751,0.03541015316059033,0.9395351173165772,0.7564666885576143,0.5493993582356659,0.0505320959806381,0.7180359577258397,0.24910510272742287,0.9348342574115085,0.8989953546049696,0.8911511243165161,0.7816320170159853,0.5564308647364082,0.061507100997843026,0.6601250070713143,0.30460748857271736,0.6134888474449832,0.12082191611539371,0.730270082095706,0.3223636728357093
28,2.518592248440853,0.8249911878745153,0.8745335692493711,0.5220451947571149,0.7086251729534154,0.21422932291433483,0.9172655056480093,0.6047163799889929,0.7815125481493898,0.3753848781936888,0.9195511981466938,0.24434566755284862,0.943467809726555,0.7042150353411191,0.8853219129649699,0.5450604040843616,0.8496633395401678,0.1957262856917521,0.8479751073306511,0.7074989281544075,0.9287221118265295,0.49306631561103326,0.7938632707546827,0.5330913374016719,0.8031890917698458,0.3738185741091813,0.8524433919213918,0.4972492398367465,0.6751245593834345,0.08037360041600983,0.999663389209943,0.9976961847798166,0.767495847488604,0.3018974763466764,0.7746691284715438,0.20098048608351882,0.7223330776350658,0.30491960932498424,0.8605806223338517,0.3532260062660384,0.8771821420619015,0.6678512765414463,0.9087144954314668,0.8716347901892998,0.8969580500265849,0.7818093670090929,0.5841938845196917,0.13868746368439794,0.6621223921137915,0.12032750671103225,0.7982835439544044,0.6071809856430535,0.5789265941841214,0.20657208390808257,0.8158608367998491,0.44783093848233463,0.6258701207154815,0.7585207700375912,0.24427129753488214,0.8387243572943223,0.3638225568880554,0.7860173491763109,0.26536040377323783,0.8058653829151816,0.33993266115261267,0.7760172975864703,0.45752215371821997,0.6395487727868989,0.16201124070579812,0.5477823147522547,0.03585189245539154,0.5519026054225725,0.030200593212082585,0.9490367082242972,0.7772622920423594,0.5590468989798683,0.051113492627080453,0.7036369505696526,0.27655798054734004,0.9144479750897415,0.8670088971993658,0.8942994203646906,0.7755126607848535,0.5576422716911587,0.07211513599217324,0.6771628139302207,0.2959091305427644,0.5579370384185005,0.11894855740085447,0.7198493079524833,0.320837559161067
29,2.5241522031250017,0.8288391493361532,0.8996831862638363,0.6132721256717715,0.6964720740351603,0.194133129332951,0.9009794449145935,0.5997737168377701,0.7775484497628984,0.33366544474719373,0.8552477502202631,0.1780165535665584,0.944840515940908,0.7155571663835407,0.9260777548349628,0.6100346448234605,0.8022969125932944,0.17604142577097934,0.8464650923047731,0.6788518018988146,0.9020182488344799,0.5024615292013332,0.7865491225713802,0.5307601538267879,0.8079636439683644,0.424066631438099,0.8462434007723554,0.4999477821356788,0.6472126015393295,0.09057880949337623,0.9996311886073982,0.9977883408972814,0.6550386492646426,0.20469993755031848,0.7535508049936849,0.22305088483074811,0.7234041323126151,0.3178799482616921,0.8117130626320616,0.29790948294738123,0.8753919701991207,0.6747231899547127,0.9410276623334652,0.9190886075712819,0.8945170663739128,0.7744231529492915,0.5582151432559755,0.13790191089832016,0.6489707899506496,0.14203946831097267,0.8115571586297446,0.638943621651745,0.6156698701475365,0.25961227656399655,0.804934065279131,0.4513546822121561,0.6389109172614327,0.7741186928983194,0.2942706247688008,0.8266550117938577,0.38295493725504803,0.8085218227148478,0.3319197482382288,0.8729198016520533,0.3982418030506524,0.776010430610103,0.4231317866051662,0.6699647298505795,0.19111010879732465,0.5517904729131433,0.036687203804257745,0.5712319149561842,0.039160958389077495,0.9493058492681844,0.7796990652205884,0.5447597101041375,0.046286309460240184,0.7098926610027806,0.3102233769579199,0.9398116241672408,0.9000338678833522,0.8965673270813113,0.778313049455808,0.5099840923420147,0.06152348579894173,0.6881623722397615,0.3244013115933092,0.5983956732562477,0.13757350033830676,0.7305057616781729,0.3397206961010639
