epoch,train_loss,train_accuracy,train_1st degree av block_rocauc,train_1st degree av block_prauc,train_abnormal QRS_rocauc,train_abnormal QRS_prauc,train_anterior myocardial infarction_rocauc,train_anterior myocardial infarction_prauc,train_atrial fibrillation_rocauc,train_atrial fibrillation_prauc,train_complete right bundle branch block_rocauc,train_complete right bundle branch block_prauc,train_incomplete right bundle branch block_rocauc,train_incomplete right bundle branch block_prauc,train_left anterior fascicular block_rocauc,train_left anterior fascicular block_prauc,train_left atrial enlargement_rocauc,train_left atrial enlargement_prauc,train_left axis deviation_rocauc,train_left axis deviation_prauc,train_left bundle branch block_rocauc,train_left bundle branch block_prauc,train_left ventricular hypertrophy_rocauc,train_left ventricular hypertrophy_prauc,train_myocardial infarction_rocauc,train_myocardial infarction_prauc,train_myocardial ischemia_rocauc,train_myocardial ischemia_prauc,train_nonspecific intraventricular conduction disorder_rocauc,train_nonspecific intraventricular conduction disorder_prauc,train_nonspecific st t abnormality_rocauc,train_nonspecific st t abnormality_prauc,train_premature atrial contraction_rocauc,train_premature atrial contraction_prauc,train_qwave abnormal_rocauc,train_qwave abnormal_prauc,train_right axis deviation_rocauc,train_right axis deviation_prauc,train_s t changes_rocauc,train_s t changes_prauc,train_sinus arrhythmia_rocauc,train_sinus arrhythmia_prauc,train_sinus bradycardia_rocauc,train_sinus bradycardia_prauc,train_sinus rhythm_rocauc,train_sinus rhythm_prauc,train_sinus tachycardia_rocauc,train_sinus tachycardia_prauc,train_st depression_rocauc,train_st depression_prauc,train_t wave abnormal_rocauc,train_t wave abnormal_prauc,train_ventricular ectopics_rocauc,train_ventricular ectopics_prauc,train_mean_rocaucs,train_mean_praucs,valid_accuracy,valid_abnormal QRS_rocauc,valid_abnormal QRS_prauc,valid_atrial fibrillation_rocauc,valid_atrial fibrillation_prauc,valid_incomplete right bundle branch block_rocauc,valid_incomplete right bundle branch block_prauc,valid_left anterior fascicular block_rocauc,valid_left anterior fascicular block_prauc,valid_left axis deviation_rocauc,valid_left axis deviation_prauc,valid_left ventricular hypertrophy_rocauc,valid_left ventricular hypertrophy_prauc,valid_myocardial infarction_rocauc,valid_myocardial infarction_prauc,valid_myocardial ischemia_rocauc,valid_myocardial ischemia_prauc,valid_sinus rhythm_rocauc,valid_sinus rhythm_prauc,valid_st depression_rocauc,valid_st depression_prauc,valid_t wave abnormal_rocauc,valid_t wave abnormal_prauc,valid_ventricular ectopics_rocauc,valid_ventricular ectopics_prauc,valid_mean_rocaucs,valid_mean_praucs
0,5.300113773174881,0.537287229982444,0.5106701293071106,0.04393447710323863,0.5130514800900534,0.171373867064412,0.6404257940376588,0.02846666576889876,0.6479991112316759,0.130817846250794,0.8200764094791231,0.2704079494159083,0.7552295958538207,0.14007149473209016,0.8950109281334611,0.3264350986167226,0.741175406067841,0.05102017823740168,0.820259137311532,0.599068304402808,0.8855520585194739,0.13176390531989005,0.8668863973242855,0.45873864272820064,0.6356783462388788,0.3827983498232744,0.7378668770696728,0.2294637161271005,0.5232191898313663,0.04368863273798798,0.5607449155787784,0.024659586912400257,0.6005275381013628,0.032248060717600655,0.49500983877959037,0.025095469211375978,0.5789866594275963,0.018216826765602833,0.6746846971478638,0.06786076911105558,0.5483896138375872,0.04306272233337646,0.5560723763640083,0.03442082959863109,0.7715595544304209,0.9421215653260986,0.4886664558533176,0.06085541640632772,0.7244040171641981,0.10415258960544646,0.6037645020123147,0.13977468326924347,0.8182478177062438,0.1707036688395474,0.6697753402653552,0.1796623583240552,0.6192765567765568,0.504328303896152,0.156978741272147,0.6727094924409194,0.15608003036091006,0.7330284656235376,0.1587329378201703,0.8817695473251028,0.2956098202222743,0.8094267366507346,0.5814500139170194,0.8722428480320699,0.4337231651947232,0.6254692109196143,0.35989165345423224,0.7575661984268071,0.25524048237092417,0.7776443969533566,0.9458082594432073,0.7235776417818294,0.11568275553968435,0.6111110803837358,0.1477666483276635,0.7885198565543841,0.15744828289112306,0.729782814915687,0.31370106590117325
1,4.792652263230799,0.5324021067094115,0.3845928618473159,0.027579945268175636,0.3564719869029112,0.12120675635346606,0.6452992244241932,0.027027845135365505,0.6780335019256648,0.1560795686542165,0.8858495857798391,0.6126653818571607,0.8061818328104025,0.29167038721730393,0.8696895010928134,0.36608727298247323,0.6020628817799678,0.03006817233121206,0.6512240462899415,0.4469722657710849,0.8260434101149065,0.09467996654851324,0.8310419601748007,0.412152226240739,0.7652455835754237,0.5090357072340814,0.7325779659052292,0.18047190303573618,0.44918680822227247,0.03466174152954273,0.5323860562226665,0.024199487002488137,0.5258869277295924,0.023974540900284783,0.4937696083392369,0.026565905250396,0.4096576705308188,0.013249144413804887,0.7269151329663615,0.08838310234412208,0.5619735046731966,0.041502351043835733,0.7034269545211866,0.11151694130515741,0.8054176250499916,0.952772194807172,0.6417812079119342,0.14126746831789017,0.667847702010598,0.08854033743819027,0.6923151633652841,0.24330926259009816,0.871772900713338,0.2827244278275169,0.6583327540338418,0.2057063193615395,0.5892857142857143,0.3662415733455591,0.11694342145202398,0.6660505103887944,0.150943060214412,0.7905914908336217,0.32977879350201367,0.8722237751378212,0.32209246781794615,0.6507008181098437,0.4346760397426683,0.8236874772230321,0.353725894287582,0.7375728375435906,0.47292425695554896,0.7440238418906201,0.1928491417401375,0.8100728447161656,0.9549707086220952,0.6703220622151198,0.10209194957494477,0.6968094844345871,0.24438709519406088,0.8581079355740838,0.26902143758479674,0.7238670542844033,0.3287003555573525
2,4.4766504136344585,0.4908022288374933,0.3489577896904466,0.025576167453959565,0.38726104827966057,0.12963249170386146,0.566955457266421,0.02815697495180821,0.6875489893383495,0.19122898268047459,0.8798571146766184,0.5772944343071325,0.7888522840006771,0.34046517229521694,0.856139403865352,0.3363335781876287,0.5827257660998438,0.02851600551500623,0.7005887436777827,0.49968279999526855,0.8737403234397857,0.19069533792263743,0.7959622039512284,0.3836496895124561,0.6499156977695462,0.437677713114781,0.7242185627086138,0.2026763263531093,0.4559701999521053,0.041757365674484986,0.6243446435555992,0.034192981319459234,0.6050435792344605,0.0378096583139031,0.48767300212147197,0.025488154826234614,0.4998230629023501,0.022409754041975337,0.7418559920657596,0.11644247984894833,0.5706659491916662,0.04132056120509965,0.725006164253586,0.10116977957512259,0.8042757464224304,0.9528098226369006,0.7714190510121771,0.2793821611981263,0.5355271486493206,0.0536084172366183,0.7511324061687403,0.32778566213121846,0.8909703795551184,0.4096624594945074,0.665631950378812,0.22367018967292074,0.5503663003663004,0.3908039218508109,0.12559683533838134,0.6487318305334427,0.17537172844745727,0.7773231326428877,0.33770790061063366,0.862069260035717,0.3117114985300131,0.6967847403454241,0.4829411582504657,0.7787781295553935,0.3032197117090383,0.6299626086615804,0.4055169243092951,0.7271468739470413,0.20508163304445162,0.806632558747678,0.9552641922185521,0.5333656046270907,0.06050227656130845,0.734808062986203,0.2839021951313903,0.8767995816339768,0.3587878392633715,0.7052671921306038,0.3338003244511965
3,4.266254762740237,0.6268987100221357,0.40808882256329876,0.029591687081970644,0.4120934362092459,0.14101254745002664,0.631695314285877,0.02693113741204565,0.7050861462791304,0.21485418147954707,0.93937538874027,0.719146370104625,0.8892447405094934,0.45938461447136036,0.9405221823291204,0.5259545086535823,0.6033469641745932,0.04439244859434989,0.7867063785096572,0.5907079079004516,0.9361650087290706,0.3899026294719962,0.7813576471452113,0.41851273421905244,0.738618847183437,0.5477497694103246,0.7663459030688455,0.24090656258698484,0.5241941537829213,0.05051219479402198,0.692183830974936,0.06144484820683274,0.6361393285560543,0.041037951673152245,0.5941448520411767,0.04280272368782134,0.5811628552166053,0.029276016585361185,0.7924986775709006,0.15297550644163366,0.5941513331297641,0.047383865922793436,0.7951228507954253,0.15316485626924595,0.8312815911227143,0.9602721430658185,0.7842088156801431,0.2816057011681901,0.6295995065225835,0.08760527136675053,0.8302603435585103,0.42535945227774297,0.9065678736039446,0.512631933884909,0.7203908766262666,0.27673536785309966,0.6678113553113553,0.3998083893397039,0.12921716208280806,0.6563720574098966,0.1861009009120204,0.8378405599527947,0.37453779629756595,0.9239141237673733,0.44165252057283055,0.766011641204586,0.5357327710558094,0.7427927979227406,0.32192707050738045,0.6942737516162798,0.48281411347210906,0.7510939152055955,0.2334733009361795,0.8275100392552917,0.9607680480941475,0.5955154629814589,0.08048785527182156,0.7979364109257943,0.34542632689168373,0.8763174801618309,0.39803169715407455,0.7391155524786122,0.3741807969373692
4,4.081845174553867,0.5323257766582704,0.38459386228917775,0.02794201015019658,0.3805465966985363,0.1300060855674715,0.5814518386010439,0.027460458160149175,0.6633499070184142,0.20013246165878443,0.9109754587890024,0.6414179875415004,0.8538878549467162,0.47359607071823656,0.8578819193379107,0.3415288086773312,0.5121521913058938,0.024817420923440237,0.6322199248428757,0.43450685061862315,0.9433290882199455,0.6420800283388672,0.7450518458047144,0.40157798445084775,0.6615725569556145,0.4645157893286309,0.7038348055396758,0.20771517859250999,0.5233726398671176,0.06503344445891253,0.6665315749951278,0.045090512615519523,0.617325042466786,0.04244467203116941,0.5528596906966486,0.03463694219695437,0.5269153207763306,0.03427726526510727,0.7975033574494946,0.17481211020668172,0.5923042620719795,0.049677835124096154,0.7698574380003697,0.16302971020295265,0.8196446081168046,0.9584605814915772,0.749837641350654,0.290769595850122,0.5944689406227868,0.06875215416649653,0.8226710189856707,0.44635645288281456,0.8941557125953302,0.49485651576795,0.6830113499363316,0.26482672796103623,0.5776098901098901,0.3742727738110168,0.12155281837256157,0.6173232573333278,0.17035818668388691,0.8163306000366247,0.3790983852594507,0.8475991924838885,0.29721040367290996,0.6255962818520364,0.40314908490556334,0.7141462053571429,0.28631295973270154,0.6156036070327062,0.395873220896674,0.6952653165557066,0.19745036212356248,0.814886953176192,0.9585571574627404,0.5709397188879002,0.07429915237739482,0.7785140056913245,0.3242104544259539,0.8636612951165779,0.3838282174913743,0.6945116006112038,0.3326583669503978
5,3.8932076609868984,0.658346691092283,0.4519936305201464,0.036393315804398585,0.40584330318379314,0.13484470145333813,0.6367882573364942,0.03302622083946685,0.7379000795965207,0.2868214863182966,0.9461143921293138,0.7121730635526343,0.9024907781762638,0.5613771320734456,0.9163681252893381,0.4634018790816388,0.6033860152648489,0.04926460750086907,0.7511428657844601,0.5494303405465244,0.9537853838312553,0.625973218767466,0.8456421076097705,0.555074493933559,0.7136209650609842,0.5135473995398292,0.7875067507224921,0.300653878003225,0.6234654571825997,0.10321312896543078,0.7729666062927847,0.09184550668040693,0.6377439418426898,0.04659052635091352,0.6094255126572247,0.04131595078666379,0.6108953725635258,0.03465454436335716,0.8179898142049771,0.219862494253677,0.6188741479094644,0.057124235312138914,0.8110537930432642,0.16517608904704495,0.8305203184031928,0.9613545080627564,0.8450086399079381,0.38923538104203526,0.687892601467262,0.11686581368841165,0.8736762588390762,0.5106607348028214,0.9130322849838213,0.5669760100542776,0.7425049001462884,0.3125714100317164,0.6483516483516484,0.38143144676328067,0.12385181036521108,0.6842697050023512,0.23870397528969634,0.8417299123039044,0.384880406305865,0.8901040453451354,0.36353234690442127,0.7262100108494853,0.48036954137966326,0.7902896091472305,0.3956593338731628,0.6496540741445612,0.4192450612402567,0.7659776685605401,0.27231401654409937,0.8187606328938906,0.9584163334663216,0.6206689124157844,0.09064527422581603,0.8070577401183064,0.32130480436757125,0.8686273488402498,0.41623645087872785,0.7370650921987266,0.37209661290340107
6,3.7328519279215593,0.6208686359819862,0.44184481479320037,0.03431771060376226,0.4460692879087791,0.1563888075891322,0.6168200822220022,0.031189463082337814,0.700143755599419,0.2592886419371411,0.9236889849710579,0.6712482715945797,0.8877247881047331,0.5711731631269351,0.8655574366239696,0.3322180479091099,0.624704894403312,0.04451335619848225,0.7557720851677778,0.5397242341309024,0.9543395694139132,0.6506060489365935,0.8037845181763273,0.47666909935274415,0.6596915605714507,0.45796815042036526,0.7054825416437251,0.21575630620881636,0.605784225642036,0.1144887404332236,0.7479850387251435,0.07294736424709274,0.6486987476829196,0.05788449116625352,0.6328027584863651,0.04794752096455155,0.6245521571037356,0.03639455636768378,0.8407284938610219,0.26903320826561933,0.6235123782232102,0.06604513128732231,0.8136664486366401,0.2014651462157516,0.837032500106581,0.963069840364378,0.8099208114654946,0.3682743407024576,0.6430596674940566,0.0933459188520491,0.8695910552951035,0.528057358392897,0.9106012237893929,0.5897933405477842,0.7305215317735141,0.3019157022653064,0.6025641025641025,0.40446419943955936,0.12779428212330785,0.6509797883540638,0.20053592079720187,0.814560400431359,0.3609856908716781,0.8320374252659367,0.25984944638735813,0.7245660205846992,0.45563655476025683,0.7419056350218658,0.3106553980204118,0.5923907506814963,0.35956527781206027,0.687110042176444,0.1969907105872511,0.8204355954721155,0.9591640463977011,0.6006603319592496,0.07769249248116411,0.7926704147919127,0.32428330522205584,0.8591007377582486,0.41358576432168453,0.7100734451614126,0.33722824081517766
7,3.555691981968939,0.6374322570796123,0.42058517511901095,0.03319772661190484,0.4236712983414495,0.14578278917269516,0.6027554269298777,0.03141075003185328,0.7080162708851632,0.25969221628302747,0.9461180824360855,0.7311593405623413,0.8963556080892224,0.5742216998714306,0.8841719670590964,0.4165813826311723,0.6307341604968061,0.042905101752127306,0.7226228478558919,0.5112324592277303,0.9368661058790765,0.4515718255694054,0.7776083319475311,0.48908725545986886,0.6977863209882735,0.5121094517359925,0.719108463364323,0.21866210772746372,0.611738120997094,0.12014631083125911,0.7198827342963171,0.06966454933631724,0.6006590945168786,0.05484288284623515,0.5497592339404956,0.032235354575892335,0.5848964330674367,0.03872028498226192,0.8204954121818526,0.2668498666369837,0.6237760040201377,0.06926161138978301,0.8110522494071408,0.24562677969488808,0.8466130581039135,0.9653170039631995,0.7808857741654917,0.32555461346781966,0.5689595044798665,0.06655838150272042,0.8420600037642243,0.5088123498014109,0.9132942759403515,0.5339607028415357,0.7169412291643465,0.2967371076348969,0.5677655677655677,0.38899636720990616,0.12521195171146607,0.6622087579637714,0.1806145468591579,0.8230441329074003,0.347949630571743,0.8541074617594534,0.3040053147389004,0.6859519690349822,0.42510175490829377,0.6981362745991253,0.29198037091217777,0.6121625403720101,0.3894806609385073,0.7021715640140821,0.21146302174843906,0.8258745273434447,0.9600618746484522,0.5200335500390434,0.05682233719995379,0.7525393871179166,0.29548610956043336,0.8688203937093929,0.3632645368463501,0.6995039105058775,0.3292868425536562
8,3.3643497032897542,0.7483398213876803,0.4871696666027496,0.04412408222366086,0.5123211540658441,0.20457148461721647,0.6936746170723527,0.04353323026593772,0.8045954051748446,0.35481466702551656,0.9732068631654378,0.8332230741061195,0.946097480680427,0.6913153628055535,0.9309709657665073,0.5760028647966873,0.714359689115223,0.05701852312595039,0.7803333548913748,0.6083378923693622,0.9352408403341653,0.34323042786271146,0.8233670449247119,0.5463316874279088,0.7335957309705261,0.5860079116098695,0.7362029721619963,0.2229757333294494,0.6911369229488902,0.20269006041654603,0.7268831404231078,0.10324144293796793,0.6639552295706324,0.07017248888913626,0.6054682800801233,0.04637007310303695,0.661625419876021,0.04735763990535069,0.8416773346512513,0.3355352272238862,0.6607211620247885,0.08064095264617185,0.8599899396088384,0.2564287966166607,0.8438864516233812,0.9651568811906448,0.8319614533253783,0.3949762613261268,0.6047749853179718,0.08824911124761828,0.8633892602743827,0.58960069998184,0.9469685556541286,0.6226337480077657,0.7643682277040404,0.34286693557918063,0.6222527472527473,0.4540777914609902,0.14373294075729653,0.7296824478687679,0.24175764464904773,0.8501953323702361,0.3790842379506175,0.8923612081683361,0.3961565503999529,0.7268398674603408,0.49181351442119803,0.7224535349854228,0.303690546900462,0.6177701216338001,0.40733516896486954,0.708998803257927,0.21764514294954712,0.8223329846645866,0.9593598856277913,0.5251341547569324,0.0568191398087871,0.7500330472921962,0.2882686013406348,0.8918254179829977,0.4183107883348464,0.7243087259918779,0.3586645135087542
9,3.214826963028101,0.7784901915884284,0.5599067087963852,0.06895982699202177,0.48292598224908356,0.18257452700454113,0.7100462026979585,0.0535955506103398,0.7992098349889172,0.38267651190356106,0.9689741651687377,0.7779315942039469,0.9491953909580856,0.680548658169927,0.9344702018892392,0.5286337976024782,0.7618380363968861,0.0863313785396171,0.7917945750314763,0.6415653450005692,0.9618347632425456,0.5713998860895174,0.8808870202754279,0.6246644325651275,0.7793801454102611,0.6395989098243502,0.7630408151974899,0.24552216134956328,0.7765611227073783,0.25822252915975447,0.8021852483301785,0.14602130454626341,0.6808053877508166,0.07234666551622121,0.624170554122358,0.045232964492792925,0.6196557165784654,0.054187225263021985,0.8688943122683659,0.40665409417475173,0.6874903464735178,0.10230540625082997,0.8621956927200887,0.24944780387650098,0.8343327926461124,0.9627320468861649,0.8293669772825351,0.37347626184822,0.6723004218479333,0.1216622188419868,0.8874391890040223,0.6078494281114261,0.9440038900757258,0.6146961363254966,0.7858809805426922,0.3653398717364996,0.6701007326007326,0.41262533331414486,0.12645667031705737,0.7136604426837336,0.2556229914109309,0.8342238590351396,0.3449792636909389,0.8835786939979813,0.34824318078137273,0.7285438231240653,0.49486812331784696,0.7887256855867346,0.36490167469998497,0.6588122932421313,0.44112710139206,0.7328197799388848,0.23308267546293265,0.8111680703589486,0.9553552816361532,0.5794486716182106,0.06891324811318014,0.7626767477039738,0.29350785155029063,0.8855693342607657,0.393694431724175,0.7326543945720595,0.36006270784141026
10,3.0672707519643354,0.7340661018242882,0.4573851784538171,0.04674103845871766,0.512764514325701,0.19800750476005796,0.6771743147751073,0.04990555500263531,0.7330101137552067,0.33210370518617816,0.9323648961916705,0.7142134841485157,0.9141864151808736,0.6379743076392852,0.8704950496187677,0.42273225744684695,0.6918408620448802,0.07613128727168858,0.6908265385282422,0.5153944809087687,0.9216118632442579,0.33939785148677654,0.7758174673964505,0.5037258823045037,0.7535174811294816,0.6035815395428233,0.7516594263795842,0.2528157267376449,0.776077249822093,0.2966527140849315,0.8257859166676889,0.16557359768048482,0.64990587935308,0.08010093697645412,0.6576694265533434,0.053099883695627036,0.6182790005309977,0.07045760469347051,0.879622862936197,0.4067754020283432,0.6797195690594601,0.14904595096225504,0.8378203405137797,0.24043736687808429,0.8330449081677607,0.9627739716712951,0.8031480279948797,0.39316479613783933,0.6766676701065841,0.13248115496587062,0.9078030632190491,0.6529965765781,0.9163785435191892,0.5482017351521679,0.7594067915180056,0.3401725504768987,0.6117216117216118,0.4355384321231571,0.13432228788585363,0.6600873049890349,0.2234079122821187,0.8145481921582193,0.32978892255270176,0.8206840593213758,0.25548601988566694,0.6334070316394452,0.3849111821328303,0.6711820107507289,0.2529645837875497,0.624802547984618,0.4075620008480567,0.7388197567011747,0.25417150119593823,0.8022240407100819,0.9542223209618531,0.5792704795975812,0.06758493259114334,0.7638161187822005,0.2918795825055317,0.8477233472958907,0.36164961579351373,0.699341943504459,0.3264959052018965
11,2.9140467045825997,0.7091825051522784,0.4755609560889393,0.04533159268027635,0.5147520123221748,0.19050277698939677,0.6968984088981497,0.049465623253580504,0.7528370537865456,0.30345121522276997,0.9387673268289999,0.7248052205467175,0.9137961238814726,0.6198585943534273,0.9001061529111007,0.5084897578421808,0.7298042365670598,0.08312901493191863,0.7564260821412863,0.5859690690903823,0.9107076225472301,0.2892896918849109,0.8042682891712326,0.5023189044732073,0.7392402492764809,0.5760478457812673,0.7215537397026784,0.22133615695675735,0.7546059637460492,0.2613465169598511,0.8212772960132795,0.1476303350572999,0.6499055668675324,0.09654226542311543,0.6304019005409658,0.046616347853571875,0.6568415926352404,0.057130263786954724,0.8971984719636678,0.46994416148410906,0.6690335156203846,0.18900210586693172,0.8372995176857478,0.23597792925420624,0.8385820460714235,0.9638076714273024,0.8145000840623288,0.40596612487019407,0.6791036100990852,0.1123126204034469,0.8847451065988978,0.6340019950871133,0.9222222760083583,0.5610960217899046,0.765785969309089,0.34159114704887666,0.5833333333333334,0.41396331848282186,0.12517359107660303,0.6666405889133484,0.18157425971275168,0.8041803161942743,0.3076245829903059,0.8469892848823667,0.3068066263997613,0.6884889892384833,0.44170732570305193,0.6906921920553937,0.2580871158163183,0.6016193584138907,0.36866368850618414,0.6993879768087653,0.21054599075073144,0.8066921104678775,0.9550861699408981,0.5797834910200301,0.06551992452335859,0.738475621054029,0.27506727066686487,0.8530070568624386,0.3434176447886322,0.6991600253661433,0.31993951590628844
12,2.7873581829493976,0.7981070147316999,0.5092893527974856,0.06096124355733318,0.5421537787264393,0.22916798030869942,0.7364658781539146,0.05793691034875019,0.7285695291669492,0.3079358380432334,0.9417822235909906,0.7215590831851996,0.9313509897959584,0.6339816461708865,0.9152742445021447,0.5125443944120454,0.783193109228757,0.10018945676129036,0.8240824559693091,0.6701882235376295,0.9279376229708404,0.34172959073167375,0.7918241142083493,0.5100905142168439,0.7808233757408365,0.6466663334578905,0.7013724054174384,0.20736558409106767,0.781399257121797,0.3246251673442946,0.8443944963005665,0.1829774092402389,0.6746503599208536,0.0980419146272948,0.6419797715455429,0.05249576859836516,0.7256561401834031,0.07376265963353282,0.8766557931750965,0.49596993759900343,0.6941878474824671,0.16884965391308684,0.8446297310903546,0.26088594527654096,0.8465802717511567,0.9657595919480717,0.7766253011221866,0.3807727859701508,0.630105616530956,0.10637203392258503,0.900588380377888,0.6448884697914326,0.9196802317138224,0.5559644210075867,0.7796635491763655,0.3581416368344126,0.6552197802197802,0.44066442846775206,0.13563528986379875,0.6250246559609166,0.17117728431078344,0.8134891244633446,0.3167677416102707,0.8475479462691202,0.3081874360381729,0.7415195144122217,0.5107059684024083,0.6640180849125364,0.2457662323779875,0.6373238884752954,0.4242260753403262,0.6687330800422927,0.19692365309468968,0.8092725597696383,0.9550691699972688,0.5252249532387818,0.056889194894903065,0.7542913084238793,0.28512053574710794,0.8557209204461074,0.36107151188919834,0.698569205406824,0.3306283411305763
13,2.680524438858469,0.756125486604076,0.4672086838353606,0.05725612531540628,0.5594445465211184,0.24539654817384698,0.6362705421482118,0.0414164297069122,0.7083876172085536,0.28742771555030694,0.9119206386109417,0.6434236086976814,0.8995997315140325,0.5990838485575293,0.8672079058300185,0.41516028860878257,0.7463244351878897,0.085524678140808,0.7573963709772131,0.5850499574964982,0.91938160144424,0.3584576732943088,0.7665383509696176,0.46630154292071135,0.6737220023469448,0.527034435762696,0.616174928672854,0.16241271138263302,0.748553901129603,0.26669554516224303,0.8224036845784936,0.15398434678672845,0.6182801545428525,0.09612405010127381,0.6272131286841718,0.04940158890289764,0.6496257659194912,0.07429514387828007,0.8795690635464356,0.5026280404977211,0.6880954490873903,0.2458384376892304,0.8328087714755804,0.2504168574079574,0.8521285143823477,0.9672557845626237,0.762179629967947,0.37127919219188266,0.6024546201016789,0.08718487214732416,0.878929814600482,0.6283743299706374,0.9092936893828607,0.48697493365424116,0.7461966747179358,0.3328614879446601,0.6089743589743589,0.44868596616386,0.13671938725612348,0.6088694877802144,0.16314824913919324,0.7907461289600586,0.28887951246635746,0.7989634288376427,0.24787446934207052,0.6762044394921267,0.43241457541081113,0.6571639258381923,0.23367791063824733,0.5420800891122916,0.3294361904195222,0.6168119023551419,0.16446428399334326,0.8188380313441179,0.9582426140208363,0.5058145077814299,0.05591046488450356,0.716339742756559,0.2686560803978787,0.8334472195921137,0.3242212175360491,0.6678304058344792,0.30030374629207807
14,2.5959004700597883,0.7655140828944356,0.4863744820629111,0.062130466584518595,0.5419193281530507,0.2293520395317174,0.6535271216530996,0.04149726193781597,0.712945098032217,0.2992487653177149,0.9178119617603704,0.6554425750945765,0.9052887577406237,0.5931222691252737,0.8614594481592307,0.40636586108868256,0.7367642203116468,0.09449700587609959,0.7092716149128879,0.5446339239018313,0.9152171542237977,0.3705141755928123,0.7191116959076957,0.4420248053629777,0.674970112695552,0.5320099874262691,0.659003520913409,0.1871792948116454,0.7898407074836401,0.2950009700721689,0.8213358982011854,0.17351307219615644,0.6529569882392939,0.11589718309159427,0.6356355250117912,0.048050452172820585,0.676046259449075,0.07782416914850607,0.8804778889520447,0.4780915174509166,0.6991863278305563,0.2556450372087763,0.8321507708507164,0.24510214151401638,0.8466499655895555,0.9658706951947613,0.7990160003690245,0.397763848847905,0.6089260684283309,0.09068446397753083,0.8729591789306779,0.6284267999172303,0.9194755623478261,0.5394234861195436,0.7510892945465465,0.3372812410986101,0.5972985347985348,0.43302200027549176,0.1296994537803436,0.6373106068487393,0.1696135285708222,0.7906835615602174,0.2975059599125385,0.794030592437301,0.24383546359779878,0.6412327361229218,0.39980901393073043,0.6112250592201166,0.21465265067231215,0.5506028513694298,0.3467549791977752,0.6555729838381725,0.19301242994560447,0.8092477622079147,0.9558854857693514,0.5220106869813137,0.05610806637124099,0.6977209812971685,0.2561634629798352,0.8461646887228089,0.3558898249523766,0.6657353759067995,0.3015775266400608
15,2.5813394611222664,0.8232959316082742,0.522536953821271,0.08009948037235604,0.549778689083573,0.2432481869805594,0.6773498536938302,0.07291498722141686,0.7511169390676142,0.35020652841909383,0.9334495947707682,0.6720327272783702,0.9257746528775632,0.6409706951017303,0.8746439878679573,0.42931274774382006,0.7523789416202076,0.09917052978864613,0.7114322615769095,0.5364091964606716,0.9129391236319425,0.3696163403760205,0.7282423335135477,0.45716845044083343,0.6980424389019089,0.5660833430250829,0.6606457576484039,0.1849324155195204,0.7749965607490603,0.31976813697795486,0.8479378844065029,0.20947860375655683,0.6628362188248794,0.09184430793086412,0.6663663157613334,0.057970977251303554,0.6738055534010703,0.11135901185256629,0.9045068350286823,0.5423274135572329,0.7240650225954801,0.26865409035513443,0.85596043187234,0.2649766981275564,0.8493617522326187,0.966543335620301,0.7972328623617447,0.3722011092837705,0.652582760275068,0.11746706134747018,0.8868823723353897,0.623932113535904,0.9280612858124163,0.5433130871232824,0.7662664378358492,0.3535385221326161,0.6357600732600732,0.4142059156707504,0.12551198304739336,0.6499777368116617,0.19270611559134432,0.8070278959041243,0.31080950745689834,0.7875052410901467,0.24439616951161502,0.6399568952878045,0.4022182310070107,0.6233540793549562,0.21879736207256,0.5607603651812753,0.3486348183202508,0.6529721031289577,0.18018831039556313,0.8147225753996165,0.9563317941542112,0.5499947790872937,0.06461589981062808,0.7062557556214965,0.25303080531087796,0.854342028523656,0.364580747617929,0.6717562809218115,0.30515181202469016
16,2.481079819047554,0.8297076559041294,0.504100477710989,0.07405786162196804,0.5557203116509447,0.24713763436934885,0.6918861140525848,0.06730413632361266,0.7557200629633463,0.3359920574832251,0.9089996349951118,0.6233178599564033,0.9025006200372416,0.6000438748938445,0.8602724536644349,0.442344219381737,0.7574790775053021,0.10529249621537297,0.7265716375327432,0.5586793170776783,0.8826911134725118,0.27664528040791475,0.7511471863653367,0.48341248172659496,0.6710460908262108,0.5363619894036393,0.6139623382131727,0.1709663189152551,0.7659989707723114,0.31511794978645813,0.8160191124903069,0.20707069360830396,0.692867954857088,0.09963957791714595,0.6051577450911125,0.0461014503397234,0.6422167813184257,0.10922473083520591,0.8807577460261132,0.5151253224919364,0.7392133185567649,0.28538088769519593,0.8603499155528131,0.2757877913051633,0.8475399272812907,0.9658090682499886,0.7950209913042529,0.3917296607299907,0.6071540114526539,0.10189642223558965,0.8525045794239868,0.5937307941606083,0.9012673679696634,0.4783250850993345,0.753390982349489,0.3425574985473553,0.6788003663003663,0.4185015306237832,0.12567243321660587,0.6384712055828585,0.1867395997517975,0.775755386900523,0.26758756194889266,0.7843054584983307,0.261265766241306,0.6569483623141659,0.41349945491248075,0.6553696701895044,0.25531072537722566,0.5365651465706881,0.33078880868780647,0.5945344905712991,0.1688281798228961,0.8129985812788929,0.9556835117250275,0.4950435378720468,0.0545268131008419,0.668055298213787,0.2317227100201167,0.8190015392519461,0.29920940356087217,0.6546291839889854,0.29590291403048913
17,2.42346538956243,0.8227616212502863,0.5210768089239415,0.0707082490942644,0.6186700842805832,0.31600079154276134,0.6411923970640493,0.04827511676463579,0.7375169097989385,0.3327087070138648,0.8986229955763286,0.6142354695183105,0.902427298172957,0.5908624624106675,0.8540630667188454,0.3799578935492366,0.7428688899330733,0.10069214351712268,0.7425846772519868,0.5776332854791366,0.8714377324785423,0.27116796762161594,0.711786380790644,0.4239711461638005,0.6246319251155199,0.4965164999403756,0.5963335014976725,0.16934322185760803,0.7975702753608666,0.362203533728104,0.8882217779358673,0.2775607546448265,0.6756415640776613,0.09032798596339836,0.6901018344717229,0.0661144158807084,0.7008264025201509,0.11088562984242671,0.9148847707293893,0.6020595205894805,0.7467684264022258,0.3494730597247726,0.8567355430244318,0.2457053122102054,0.8369976024345136,0.9635969296050058,0.8147040186648717,0.42182467442754523,0.6407989711157132,0.10266621844521535,0.9043473531575239,0.6584459290073265,0.8916251798457525,0.4675454224318867,0.7624013995132221,0.35040316696055007,0.657051282051282,0.45686025785202805,0.13852427053295535,0.629998293849118,0.17183066764929542,0.7905925081897166,0.3037678525578399,0.76609674664182,0.23324057242591933,0.6709966865085183,0.4423569804114464,0.6141854956268222,0.21012949370688216,0.49988525113209553,0.3177409935910055,0.5956011014674614,0.17804682820615977,0.8078384341166356,0.9554682206987215,0.5402112426680226,0.06275514549392036,0.7378356927348502,0.26429249051625153,0.8102113585966763,0.3141900526064424,0.6600260891153138,0.29936196403306997
18,2.379916105713701,0.8202427295626288,0.5473551651979625,0.09518667058520497,0.5805494200958998,0.27284063269240355,0.6781445856747423,0.06061604300794862,0.7650362467563525,0.3423563318953562,0.9089849995739373,0.6192795579812288,0.902605804926442,0.600154680028007,0.8428363781953644,0.40777661579617974,0.7264610822549307,0.0979715762073172,0.6977739552474365,0.5302194540950192,0.8843675276766072,0.3591935818228616,0.6596890319564818,0.3987285450785867,0.6680397292419711,0.5350945216398466,0.6643454170168261,0.19245293197592261,0.791027206597927,0.33848766060940055,0.8397349409412602,0.1976936525344199,0.7005585366676791,0.1420018048211838,0.6564444722385062,0.060278330492592624,0.6536589622275654,0.10867789106429172,0.9009572448563941,0.582085322823071,0.7409032640130057,0.31622142487482424,0.8449652146745048,0.2499016836859741,0.8491262183225975,0.9664632329583038,0.8118274634359217,0.4309881895039583,0.5864178135671347,0.08106396574474677,0.8689585134911467,0.6099544484035613,0.9079446543809163,0.4949025698241908,0.7568736095857506,0.3496381276979385,0.6215659340659341,0.4306248111134183,0.1287732715050568,0.6720761359427732,0.20715709002451232,0.7852086597350807,0.2878726022300614,0.760188679245283,0.23507355072190528,0.6257810163328739,0.3982035458198775,0.5523967064504374,0.16729067916495433,0.5456650116707995,0.3400087544684197,0.6710498797448499,0.21408543377282901,0.8121340481042639,0.9565280049271372,0.4995845969455391,0.05156795795613137,0.6864644375184941,0.23794745305534082,0.8354185243405065,0.33822512408624095,0.6563827089286933,0.2968944556443722
19,2.3517330455994774,0.8467292573086024,0.514967277214103,0.10156730399776268,0.6149983211644907,0.3146144941071304,0.6256566686629916,0.054888995687192535,0.7020466656910442,0.3059897717209776,0.8752912406878465,0.5922063649623507,0.8823513780573742,0.5816996173653172,0.8177827557026398,0.40865777292116046,0.7054369912246168,0.09754025066996032,0.6914477640610717,0.5167081908287633,0.8064410808004606,0.189645185359842,0.647610804794804,0.3759381809727531,0.621444725842663,0.4916297508745128,0.5488350558103633,0.14309361060045414,0.7476540911800622,0.29580325891320136,0.8435784949050167,0.2322471378107609,0.6743399055293693,0.11363590344986801,0.6604743857565407,0.05819318670604273,0.6658480451527066,0.10751812766004859,0.8804930931274121,0.5818387142968118,0.745855478612056,0.3236845202499887,0.8523512047977033,0.2521479527909032,0.840435337800939,0.9639766936762911,0.7982080764172089,0.4094122860293796,0.5750788529069072,0.08162850699891197,0.8785202831691484,0.6244162354351813,0.8944475745351872,0.4651117019124775,0.7350613674463358,0.3339920659999247,0.673992673992674,0.45371512922412083,0.13811327829075296,0.5769994215732376,0.15903177595382756,0.7720338983050847,0.27984684612758903,0.7397406630949607,0.22666779434412573,0.6199214145383104,0.3902904655242846,0.5464667228498543,0.16504120111192747,0.48792953859760096,0.3007765062298853,0.5391683223535153,0.13703384487169135,0.8131800543442322,0.956544894002973,0.47421720358835595,0.04879823021445698,0.699952710569326,0.2526195334073834,0.8058448675089143,0.31041189936233315,0.6274308288789595,0.2804313557867692
20,2.298355044595031,0.8458132966949088,0.5197790690888475,0.08550178652342542,0.6161202306845956,0.31091680152044215,0.6535296140921076,0.06488070348015547,0.7409592808472211,0.3212192625728174,0.894247046580394,0.5931627414650442,0.8940983157623309,0.5829249266492278,0.8599807138027852,0.4362815796526678,0.7660245990119757,0.09916229972996891,0.7313157902357517,0.564557758921133,0.8464116173701748,0.2411452403201767,0.7381926941941,0.45187142636950983,0.639783221088372,0.5070107912925418,0.616270953584008,0.18192910139898383,0.8130137009567062,0.3458530699392089,0.8394201245364635,0.2012562327731077,0.6833580821886989,0.12646351749690002,0.6435425907926973,0.05658237394258584,0.6892708625431809,0.1100286910438174,0.8778742992295325,0.5723531077679184,0.7463327276079114,0.3565985863137012,0.8539104831004778,0.2494963601318856,0.8387689384327108,0.9635848796569377,0.8133521932377471,0.40616828644078157,0.5711432629984666,0.07455659856077544,0.8588770804492489,0.6068427356954198,0.8976925314749253,0.48196601662606403,0.7555103855342857,0.3458582644725076,0.6801739926739927,0.4502998542360964,0.13592723556698982,0.6281315151035967,0.17643248559260857,0.7781990762406658,0.29264210664227464,0.791587079742216,0.2602091622054492,0.6544820103803185,0.42024525783814687,0.6599284803206997,0.22911457051309417,0.5097514147695787,0.3213580180658915,0.6101682410215298,0.18265193017846593,0.8135073070148544,0.9571611585081985,0.4735799117438757,0.05005819098250518,0.6800034844843654,0.24221003017001708,0.8168014405845685,0.3205150528519408,0.6555366513035304,0.2990437665929652
21,2.2766380757832745,0.8274177543698954,0.509946226249927,0.09240491533814696,0.6132365429280194,0.30815375502729525,0.6538842525567083,0.05348563700291824,0.7306817816770952,0.30719066722058797,0.8554817158718752,0.5355251649129955,0.8710265946767343,0.5552736382033849,0.8175892614769213,0.40952034096929146,0.7291333832848634,0.09546016605907966,0.7109287365153646,0.5485308343864181,0.8424963790354489,0.28870514106305084,0.6534291648639239,0.38147774627494396,0.6341895471350851,0.49872557057245726,0.5911761800262917,0.15673023241499537,0.7460929260127956,0.26904562776251356,0.8095646947711856,0.16227787721094453,0.67708930961943,0.1431041053877724,0.6050070126963699,0.04623286313678417,0.6943037814198522,0.0957871207461338,0.8904658626164079,0.559944188729258,0.7408384919643511,0.3497606649309916,0.8545182640967939,0.26724178468588994,0.8396643611330475,0.9640380135418303,0.8063194841911231,0.4252643533171902,0.5414664154483159,0.06703440148086184,0.8385266067763042,0.5674234972697025,0.8716998171612459,0.43346240343989584,0.7357214151617494,0.3300692581186667,0.6270604395604396,0.45387631244050713,0.13922543134841453,0.6058200551794164,0.1536630903697805,0.7797800476122653,0.27217589897865857,0.7505963195900303,0.2457040107310006,0.6344679353722547,0.4082509732217918,0.5517319036989796,0.16964524508181233,0.5145424598798776,0.3126163396504472,0.5890643336005671,0.15727279277919862,0.8097628751946233,0.9563710904581342,0.45475284653240594,0.04832650430533594,0.6527346288609333,0.2240762580198702,0.7890407712806433,0.2872242764705122,0.632180874103542,0.28121265928457967
22,2.2420572863490644,0.8432944050072514,0.5290800937080544,0.08627438549429246,0.6111689038833007,0.2893828160750118,0.5948447815804485,0.05434284603206434,0.7069912425980589,0.28682997685841966,0.8301569017794661,0.5020268375818097,0.8550346777971553,0.5045742068780761,0.7702115454757003,0.32319087704047345,0.6895727239246664,0.07922358303792365,0.6731078877012661,0.49676439545974094,0.8474683892273261,0.2750343651627157,0.6357183711315417,0.3734173760611787,0.5768060908017443,0.42731120526978744,0.5795603929513237,0.15604204836305985,0.7639918069399838,0.27150941404122464,0.8381336020856928,0.2082171985842107,0.699586081643724,0.12453551229935973,0.6244321577718243,0.04605665060576363,0.6817563495993652,0.10186659415780655,0.8987898980117284,0.5730028318196939,0.7342283620430101,0.39971093734679813,0.8418851460629664,0.23222264438051024,0.829362523676213,0.9612599042752912,0.7703309445874482,0.3730355624092609,0.5361568295957437,0.06042353950241152,0.8501868892718039,0.5496816313412335,0.8651081294176292,0.3949225035527309,0.7243719508948916,0.31349460937041723,0.6703296703296703,0.45005849059319125,0.13342277448187487,0.5934425547320719,0.14441219438802516,0.7569810975237553,0.25884232710475213,0.6847099930118798,0.17563648405066057,0.6044559129695335,0.3806282108152006,0.5306987973760933,0.17129134635398202,0.4694636469988973,0.27776610329502344,0.5720334158272044,0.15957670418158318,0.8026831713225968,0.9544109781529745,0.45175649663137635,0.04473809721664479,0.6629449976908378,0.21591110925845852,0.7908987004709682,0.2646201556591617,0.6141772729290338,0.2651047070798618
23,2.221579792826933,0.8581024349286314,0.5473142304517828,0.09844087035171323,0.6298303659427041,0.3218395460976553,0.6523638647616837,0.0662453686580155,0.7316231979240656,0.3450944284146583,0.8578739572367251,0.5194481155779846,0.8933061074652483,0.5527870506951226,0.828005844322092,0.4092264431498826,0.75732985789213,0.11293832307909207,0.7017216831103041,0.541064864073572,0.8220855854516089,0.21728023135370025,0.707134644314335,0.4346703468672206,0.6136667326241527,0.4770858696594476,0.6138541290711796,0.1784818686201236,0.8186723302496131,0.36940335403301044,0.8663907593889563,0.23880861434918912,0.7040871234705395,0.13895623708474283,0.6523158606282689,0.05532170029099413,0.6877841434529172,0.11730055127545298,0.8966579718833029,0.623838623640433,0.7611364327114506,0.42584354596144514,0.8497661288363989,0.22215436376740672,0.8306421455876473,0.9615579421496254,0.7942325655640643,0.4260139771394789,0.5709966442998118,0.08389930999834656,0.8850669610600771,0.635923037773196,0.851232762494513,0.4166881353958397,0.750965078084445,0.34578125844066726,0.7048992673992674,0.4582566308184777,0.13761352310375716,0.6047697320510846,0.1701600737711193,0.7714295887846664,0.26838511682056104,0.7398478142712944,0.23684286679592892,0.6260296748086679,0.40339937502185086,0.6297455812682216,0.23352645318497317,0.4984472519045513,0.29974703534512537,0.6090778114724574,0.1831435517656002,0.8096475289605463,0.9552379502286038,0.4674010750540252,0.05049265175434773,0.6986164384698135,0.2611912608985978,0.767883462183123,0.2712703309302639,0.6400960491705775,0.2892508491350608
24,2.1871873009032887,0.8403175330127471,0.5248309670104296,0.08644676391804139,0.625073896996383,0.3316131265373209,0.6056007240891382,0.05266074233172655,0.7176182258185414,0.33060602700243147,0.8555872250973067,0.5460794494653689,0.8843981160709717,0.5584500247686339,0.7985836370476944,0.3914238509006483,0.7337734782774342,0.08886611932959552,0.6913671788149449,0.5224095531805222,0.8117819471821369,0.2255954933248398,0.6722027669973154,0.4140308866904304,0.5925905480577763,0.4666030388617793,0.5698026022882644,0.15223366498940652,0.796410441056334,0.33164727143520933,0.8597012514974223,0.23279084887153864,0.688493782162575,0.13563552328381795,0.6660424141624961,0.0641703219990947,0.689075094416171,0.10831393607832623,0.9093175363622057,0.6228372417953978,0.7383095349438085,0.4015939687421637,0.8506602028790665,0.22516575025218236,0.8346733646918387,0.9625211582776105,0.7923743935828579,0.43290706845057514,0.5768408306869846,0.08266898327985936,0.8764961976867285,0.6311077214052057,0.8658221994064058,0.4264387767313771,0.739516482972432,0.3394160504578117,0.6829212454212454,0.44428755579221346,0.13592771641784593,0.6007498741193557,0.1763689525499147,0.7706207906891571,0.2745463858180868,0.7333271216709372,0.22947694245212763,0.6232269888279623,0.4045270179696613,0.6015881240889212,0.21685081625195418,0.4837823465863611,0.2975137453849612,0.571443177989241,0.16105790595649094,0.8053466548840676,0.954254877387856,0.4902879673851853,0.054598187218203774,0.6892177332599563,0.24491589780465353,0.7930691784970488,0.2906474440924162,0.6339122928158673,0.286723824108681
25,2.186794481917325,0.830547286466682,0.5022286509875196,0.07252773702474026,0.5728291440631988,0.2605408032974814,0.5855145141844703,0.04544144337630335,0.6849094991130165,0.2643587621772691,0.8238788512544695,0.4770727146154703,0.8502576845250515,0.49937223827252714,0.8086974771768777,0.3619736666006549,0.70385145346253,0.06880047164770377,0.6736048970860928,0.4820318582872143,0.7648006644368555,0.16764445930128968,0.5909441777224896,0.31633669047329793,0.5612375500147869,0.4037407705528632,0.5263535692551681,0.12804428900338183,0.6990837156138595,0.19383266740920446,0.7825984891538251,0.10654305143321695,0.6592441974558676,0.14104106081863915,0.5740357423146767,0.03777466248123802,0.6831028614215227,0.12947596126875396,0.8762424400997261,0.5453578899844698,0.7254512156147614,0.37640012912773607,0.8224456218157358,0.20960346873098928,0.8346069596392893,0.9630328747516674,0.7609325031090923,0.3670979132357112,0.5249890136767965,0.05404067467597401,0.8253979991179786,0.5161473337642193,0.8281465656988075,0.35063122229411114,0.7017455945390179,0.2899563390233126,0.6307234432234432,0.4356675431689361,0.12791909959475045,0.5775395639744161,0.11924686209008958,0.7510295643681201,0.2607363461407394,0.746700054352046,0.21823987637614892,0.6042990352754889,0.36272960686262784,0.4953033892128279,0.13209334324887928,0.44860342231501643,0.24756271893818546,0.5138403801689382,0.12119966719529973,0.8149279067250987,0.9575181470662303,0.44468329489530933,0.04248264009607094,0.6542705674455134,0.21537296755006613,0.7480396753169153,0.2393874018053636,0.6029086997682189,0.2537073897470376
26,2.1929130533452925,0.8121517441416686,0.51645893603008,0.09047709290143732,0.618737889254193,0.30676609114005304,0.5704188792997242,0.036846638816901534,0.7222786377929991,0.3209611125945518,0.8154943065276159,0.4511616679969246,0.833689034592173,0.46692397409707453,0.7495310238615781,0.2856396781467308,0.7038343090814422,0.07551161102014423,0.639809208115219,0.4451416682053666,0.7729337518961056,0.20238472636779314,0.5779466116953078,0.3072150943619218,0.5794428865768768,0.42109168705628935,0.5440577176893957,0.13448601229822243,0.7288540415869129,0.20741319632422978,0.7781743646773269,0.11129532099124162,0.65551811978696,0.14764634503562243,0.605925609087767,0.045069558206054086,0.6862172526534971,0.13973310942310863,0.8716307296767793,0.5335583043544642,0.7343025651866609,0.37544057096582195,0.8332918266731266,0.2225206886767868,0.8286715132272124,0.9611502982140815,0.7657949170514213,0.3846401735896553,0.5151923043325758,0.05338034855526402,0.8086662452538237,0.500450367422559,0.8615635181076012,0.3662313415378925,0.7045552384505529,0.2920437183961612,0.5831043956043956,0.4644177770285134,0.141633178047578,0.6018892500010402,0.15554057480767572,0.7528557185586099,0.23051421825003515,0.6670510132774284,0.14570844546136982,0.5700823974430402,0.32494588880428066,0.49732085914723034,0.13042677964277985,0.4716114099557237,0.27038344121540037,0.5378937339514565,0.13286162175345426,0.805040442568847,0.9552261208384728,0.45587080284017656,0.04435792849064839,0.6332508303305006,0.1994203083306231,0.7953775457153743,0.2828183079484886,0.6043884817348285,0.2511530677992339
27,2.15891214076203,0.8516907106327761,0.5356934312654755,0.10862254285865039,0.6069914268624975,0.3063110310305809,0.6170994134222825,0.0608142684299079,0.7304199698032932,0.31486949993617713,0.8271637275050641,0.46809515160427734,0.8468576906270052,0.5098485554176265,0.7550469846513468,0.33915663623132697,0.6721314910531729,0.07472308051466717,0.6485430785977234,0.477553065472508,0.8192663254352592,0.2858081067569278,0.5732097473616363,0.323154702999763,0.5947153679617271,0.4581831137502277,0.570660569721462,0.14861136527743485,0.7586478054182214,0.26310332897326666,0.7881633120321194,0.14761426483426335,0.6792992074116573,0.14306060193972525,0.588814438993838,0.04456834397625627,0.6516158887649232,0.10564010627476329,0.8821881080625904,0.5807635833242685,0.77001402919867,0.4407655738673825,0.8485069333960117,0.2149595790863075,0.8332205942957837,0.9627695635042881,0.8078691747385722,0.46387547074885127,0.5185141384236406,0.06396363954195142,0.8154924632816092,0.5513206508371191,0.8796303861338187,0.41024350439668633,0.716145219400746,0.31801535890712324,0.6556776556776557,0.44962469392664106,0.13199644137145838,0.6135701415272964,0.16131163096548107,0.7597218548436323,0.24914468262704695,0.6950687165152575,0.1898021313395038,0.5856256047855027,0.35731622965680954,0.4854022412536443,0.13829607129562108,0.48243138857325174,0.29064291841753764,0.5652979655384758,0.15376975673025495,0.8090187604826056,0.9559133688308659,0.43553194290591457,0.04377867200817301,0.6396810867166478,0.19954116013321702,0.8129374789974332,0.29059808567068035,0.6111593230055253,0.26350926242055417
28,2.1508303109529994,0.8472635676665904,0.5161808131924934,0.0969521242175089,0.6397646850326493,0.3421663362587242,0.5883904327372605,0.05274617237724872,0.7144636336703991,0.3314118701705904,0.8393472753123173,0.5049298425080772,0.865517120901357,0.5069206155744916,0.7576749835655127,0.36980581057857337,0.6725026351548709,0.07386770025128261,0.6663608964155412,0.5014312497346239,0.7543095561918719,0.1988052949665547,0.6063917342830218,0.3655089331045909,0.5843996222379283,0.4497699606124739,0.5716654065318015,0.16071813063318835,0.7257583760621342,0.23848370619286172,0.8058165397179735,0.17986779542135137,0.7057739204561788,0.18661189179038765,0.6357188276337472,0.05120641723387771,0.6572814183605893,0.09367383092490054,0.8969090913951384,0.6007095757951891,0.7482334491400621,0.4192387824182082,0.8514859452960056,0.2547982282360344,0.838873814159238,0.9637416999982084,0.7662857864258459,0.39751162110443405,0.5377316031162185,0.07628495041186527,0.856016487254334,0.6290959985641151,0.8536557360906887,0.40278254476249103,0.7175580688590453,0.32496311860930205,0.6510989010989011,0.46414598594169854,0.14258331807328145,0.5829776078100096,0.15067600604207565,0.7713324312775957,0.2585182007203343,0.688351580091622,0.1950947837057257,0.5979978301029235,0.37271289246246675,0.5168817192055394,0.1631805937313271,0.48194944332805306,0.28944873601063015,0.554613556880105,0.15689361339544694,0.815355476804511,0.9573958941395415,0.45669139411989024,0.046461463775539204,0.6743273700715978,0.22440910570751155,0.7715359936754824,0.2761018446319473,0.6146800324424191,0.26945637103298564
29,2.1406062931088528,0.8524540111441875,0.5142824747596855,0.10745931184603205,0.5926097574006675,0.29915028296761953,0.564820683255866,0.04717092250139908,0.6930060357720327,0.32476307044872915,0.7872448823832136,0.43728198957866116,0.8208594306680262,0.47534053653565045,0.7375028512993798,0.3107737561023282,0.6911820733271529,0.08706062197732047,0.6556860460589166,0.48573247600131503,0.7977104327942671,0.26772659988099196,0.6172524351126556,0.359737797124315,0.5274296795842415,0.3921408592152056,0.5137864901248456,0.12774945044053948,0.712135036031461,0.22783735674050304,0.802273492322432,0.1531206303986389,0.6656304645910127,0.16476890057150903,0.6073498691026995,0.046956908450750984,0.6359141663037188,0.07842730460930493,0.8976114908813375,0.5827444870705567,0.7472130224559711,0.4157420022162883,0.838844388718037,0.2374336038218542,0.8213185189095037,0.9593336482695517,0.7764671911103935,0.43043301407865986,0.5523388437415586,0.07472186346333352,0.8348910457457082,0.5649788067076726,0.8382518721314116,0.3791735997957539,0.7016774105610074,0.30914460772363406,0.6540750915750916,0.43481393001276725,0.1322807855306568,0.5815469378753012,0.16046756356184433,0.7436913748550267,0.23673705968029993,0.6696956285425887,0.18010725863404645,0.5932868076122335,0.36682455358741073,0.5373493872995627,0.17850750536982876,0.4291949107477708,0.24786353366134256,0.5021320599068168,0.12253455338236911,0.7949854070106465,0.9510889547867338,0.4750712768082518,0.051499399504607545,0.6541505463173701,0.21376858423066902,0.7632748989578642,0.26991788106277537,0.5982660971621833,0.259299802749382
