epoch,train_loss,train_accuracy,train_1st degree av block_rocauc,train_1st degree av block_prauc,train_abnormal QRS_rocauc,train_abnormal QRS_prauc,train_anterior myocardial infarction_rocauc,train_anterior myocardial infarction_prauc,train_atrial fibrillation_rocauc,train_atrial fibrillation_prauc,train_complete right bundle branch block_rocauc,train_complete right bundle branch block_prauc,train_incomplete right bundle branch block_rocauc,train_incomplete right bundle branch block_prauc,train_left anterior fascicular block_rocauc,train_left anterior fascicular block_prauc,train_left atrial enlargement_rocauc,train_left atrial enlargement_prauc,train_left axis deviation_rocauc,train_left axis deviation_prauc,train_left bundle branch block_rocauc,train_left bundle branch block_prauc,train_left ventricular hypertrophy_rocauc,train_left ventricular hypertrophy_prauc,train_myocardial infarction_rocauc,train_myocardial infarction_prauc,train_myocardial ischemia_rocauc,train_myocardial ischemia_prauc,train_nonspecific intraventricular conduction disorder_rocauc,train_nonspecific intraventricular conduction disorder_prauc,train_nonspecific st t abnormality_rocauc,train_nonspecific st t abnormality_prauc,train_premature atrial contraction_rocauc,train_premature atrial contraction_prauc,train_prolonged pr interval_rocauc,train_prolonged pr interval_prauc,train_qwave abnormal_rocauc,train_qwave abnormal_prauc,train_right axis deviation_rocauc,train_right axis deviation_prauc,train_s t changes_rocauc,train_s t changes_prauc,train_sinus arrhythmia_rocauc,train_sinus arrhythmia_prauc,train_sinus bradycardia_rocauc,train_sinus bradycardia_prauc,train_sinus rhythm_rocauc,train_sinus rhythm_prauc,train_sinus tachycardia_rocauc,train_sinus tachycardia_prauc,train_st depression_rocauc,train_st depression_prauc,train_t wave abnormal_rocauc,train_t wave abnormal_prauc,train_ventricular ectopics_rocauc,train_ventricular ectopics_prauc,train_mean_rocaucs,train_mean_praucs,valid_accuracy,valid_abnormal QRS_rocauc,valid_abnormal QRS_prauc,valid_atrial fibrillation_rocauc,valid_atrial fibrillation_prauc,valid_incomplete right bundle branch block_rocauc,valid_incomplete right bundle branch block_prauc,valid_left anterior fascicular block_rocauc,valid_left anterior fascicular block_prauc,valid_left axis deviation_rocauc,valid_left axis deviation_prauc,valid_left ventricular hypertrophy_rocauc,valid_left ventricular hypertrophy_prauc,valid_myocardial infarction_rocauc,valid_myocardial infarction_prauc,valid_myocardial ischemia_rocauc,valid_myocardial ischemia_prauc,valid_sinus rhythm_rocauc,valid_sinus rhythm_prauc,valid_t wave abnormal_rocauc,valid_t wave abnormal_prauc,valid_ventricular ectopics_rocauc,valid_ventricular ectopics_prauc,valid_mean_rocaucs,valid_mean_praucs
0,5.63247882418119,0.0822074650790016,0.5091584562897067,0.049143655427308815,0.411922019746666,0.12689821806155752,0.5829846863714415,0.018758685993485368,0.6291119005768414,0.12677875402532027,0.39298243030016655,0.056558142054608275,0.3775976343577828,0.03686459331244732,0.7966625486883221,0.19630731403467427,0.7063216046396169,0.04973539638663964,0.7440895546998509,0.4346105752203921,0.9169281497868428,0.25778060771999906,0.7567001884279865,0.2876606405163385,0.6667886517621815,0.348244452615189,0.7432330061018387,0.2396676460719804,0.5833396673454941,0.05096733954949888,0.5803848414897628,0.022471997136686208,0.4639383334985705,0.01831185135198521,0.5850923809074212,0.02245302517756384,0.3853714499944239,0.01936729249736214,0.4806584004115475,0.014511928734666675,0.40195892198897104,0.02690557241127009,0.5420572122116821,0.04004598655609604,0.6091591778822903,0.036203243064287335,0.7326520900507572,0.9230977131029624,0.380073749375269,0.03069041426987653,0.5143236779268271,0.06590348748444509,0.4476985346799183,0.08909922672845921,0.5689136312573686,0.07611885010585419,0.5744482555840573,0.13574654109670203,0.10737179487179487,0.4239893291612761,0.1331057904127173,0.5981381813875607,0.10211179057343509,0.3984665868036404,0.04130615541235205,0.7840973955291244,0.17698691494171215,0.7316665720689142,0.394416947044239,0.7822136376403298,0.30289885833902586,0.6679578836096584,0.35252677262929655,0.7701505972160119,0.2654702088001411,0.7307316369433503,0.9252287861784244,0.40976184274357674,0.08579579893757153,0.5401672186868123,0.06994339378518782,0.621576443799114,0.2590719470049185
1,5.277064405263958,0.5563697427677277,0.5830950264778014,0.04719780304972368,0.3947118423886238,0.13950134328441072,0.6660143869937359,0.029995228593232486,0.5822539739867779,0.09529917063991741,0.67701236662848,0.12225015770061426,0.5852505373234954,0.06360434316901926,0.9175006720117556,0.48126654761217297,0.6866796001682303,0.031114238542858646,0.5290380384673486,0.2761157495346303,0.8669544491174255,0.09848497697639712,0.5818887207586918,0.13139863866093854,0.7759115753481546,0.4655740219944172,0.7973648896528293,0.22410287948639757,0.474478674525083,0.03647504946009581,0.5359240938434806,0.021205166499932593,0.5394790608814017,0.0210561766316988,0.5332074087561979,0.018575766425680887,0.5536155541793315,0.03244296885252465,0.511099868365309,0.01597316307858564,0.6624152535745134,0.059888878244587815,0.514109650295105,0.03522308600764391,0.6184795759660152,0.040220961486879696,0.7979808136561739,0.9505118974178124,0.39656091708877633,0.0364053724629797,0.6995130597538913,0.08083136812464199,0.6904461360493873,0.18104195865655032,0.7542587411125196,0.10313153878554658,0.6268609217544643,0.14218105375481077,0.5508241758241759,0.38043064456278647,0.12932634807955568,0.6189946075003897,0.10948074001341473,0.5844443774131274,0.06479423455595441,0.9134373506610737,0.49405402073747845,0.5298463067759092,0.2547075319942417,0.5894387655224655,0.13255089888548507,0.7680332702792924,0.4468862744944857,0.8079343369251047,0.23306961175172936,0.7869885064338689,0.948739079050577,0.7066424838485553,0.20667694201258036,0.7438306063124641,0.10483150119843249,0.6754564778395489,0.28410156207035775
2,5.047908209269397,0.37439890084726357,0.41747284132184415,0.03427261045029675,0.3472148968001666,0.11734279148642154,0.6257575569046004,0.024068479876165755,0.4445596698487803,0.07023242300807638,0.7159105058025892,0.14227972727713945,0.6289201497900854,0.07430636859035478,0.9506008397922295,0.5978921221876583,0.5894598286706321,0.02340485195538477,0.43676625470529806,0.23225980670967505,0.8697448301925155,0.09908223314129191,0.5175172081700543,0.11494626530292991,0.6935979210741035,0.4146836592443911,0.7772423673425009,0.24719867351636354,0.445751780834027,0.03268338104063409,0.45909797365040633,0.016629574705376127,0.48028391537000165,0.01700515081016849,0.42261595664088225,0.01446999085684997,0.5414687158168483,0.031158408229022168,0.38100072626036435,0.011888866199830796,0.6939709902623077,0.07013534632107199,0.5347342205815359,0.03794508009127748,0.6142613949444177,0.038736392227996366,0.8073497763505383,0.955170688597177,0.3921164020470872,0.037948541500390856,0.498976930761364,0.05063648196903291,0.718039570695652,0.21279303597137303,0.7994217206653693,0.1371862694584992,0.5853279609368963,0.1428280452120315,0.4027014652014652,0.34960495832957245,0.12423500042807975,0.4989664303185084,0.0714816340286775,0.6314184880033095,0.07330616097573728,0.9444500677003133,0.569936893093379,0.4464788926847303,0.21539263336693937,0.5230533615340749,0.11541113635236523,0.6934033882274397,0.39834763346504687,0.7892241013995925,0.2690208359700138,0.7968707364531006,0.9532023120626316,0.7342041037693211,0.2544160447037121,0.7797894466980099,0.1281623605783233,0.6534058159198156,0.2884466040931733
3,4.976012136688506,0.4265323257766583,0.46931064386360677,0.03320532961657452,0.3872318739667593,0.1272905504555352,0.6652910482391742,0.02550600824889973,0.5651586322630031,0.0841923901325706,0.7539178459353103,0.22068372235974132,0.6522570889273444,0.0731268631949831,0.9386111594750635,0.5727087239461581,0.6385729825793007,0.03174305341783831,0.4377094686805114,0.2247804873611572,0.8764793373452705,0.09336020722242083,0.5989401358050499,0.14768324898566482,0.7624346408430924,0.44354367747428597,0.8486248619748378,0.3389317961471449,0.5299239382800461,0.04026832827329675,0.5465287411228724,0.018788428205531973,0.4745956267534117,0.018764540048140398,0.4194880740695781,0.013704618017858376,0.6399390902209788,0.03807356982392483,0.3387906251891303,0.011690060088568892,0.6935926401607249,0.06412635996675926,0.5465375802902468,0.04257607765878292,0.5912134779582875,0.0345976050254486,0.8143590570391521,0.9571278305500006,0.4317572644018925,0.03694166865834698,0.5215845578771693,0.04958359851682936,0.7207752875563374,0.1959986468795471,0.8158156652188429,0.14372026725516776,0.6177570868902591,0.15121176509374734,0.45604395604395603,0.3785508118462356,0.12242965800540961,0.6065277718519009,0.09326070099056741,0.6449481608521787,0.07350532722703451,0.9289569837519248,0.5548840115681105,0.4554341806735258,0.215592771269787,0.592101203496438,0.1368711230579412,0.7587015967508624,0.4423515771742942,0.8535685373687425,0.3841159235244659,0.8046013609833704,0.9545225411162146,0.7380093675437128,0.21503514924748254,0.8001283912024116,0.13888985580918334,0.687411669665573,0.3028598762718628
4,4.913752218537927,0.24135562170826655,0.2935365866619902,0.02344099291747606,0.31748895753855844,0.10556075797276279,0.572006332736559,0.020460673072930438,0.3686100234634749,0.05357482981258972,0.8434366628822514,0.336919180115388,0.7629750842373528,0.21404949264692644,0.9323396653826388,0.45367177322809615,0.4507160859239864,0.01637704995233862,0.4197721006479907,0.22071036071505737,0.9040160624819055,0.1333398186118578,0.4323735105143914,0.13245025590402318,0.6481304535954263,0.37379038664680997,0.7607462378579503,0.28202355945029045,0.38686497203101133,0.029280137640564897,0.32099306802153577,0.011565263482955085,0.3980467295103711,0.013762417897141787,0.33170841547841967,0.01093905989893407,0.4044404581402467,0.020480218430765695,0.4469568934212915,0.019620319442315685,0.5917651066314675,0.0629550433569491,0.5515511714265062,0.04227871877196278,0.5833062316010131,0.03305423030398172,0.8354370525110861,0.9616497349481051,0.3168097025068499,0.025288271715724328,0.3196664286676858,0.032762568774210576,0.637682437661644,0.21399010332711893,0.805350996737399,0.12308384007900486,0.5421010158618891,0.14692885404134376,0.3031135531135531,0.327578903029756,0.10778152681697452,0.40733965085023516,0.05400252836895267,0.736972343836183,0.20009817212053427,0.9246095616736578,0.401207359344985,0.42006648432310706,0.20164646811344378,0.40131850524721047,0.12250659789258785,0.650463308111717,0.3782277878078958,0.7504183580724259,0.2562685197383553,0.8279757530892443,0.9597298733103714,0.5934096115469926,0.1676421601976185,0.8078008509793707,0.13007440982904747,0.6225412118872637,0.2708350366855243
5,4.635238647897702,0.5130906037707045,0.3423641667530217,0.027607064618906958,0.3147613399759993,0.10657004977542714,0.5888522756716639,0.024675081823235603,0.524156006462095,0.10719649520943175,0.8607949772378474,0.279845545555797,0.7934456563272563,0.29693746608619936,0.8742802842244548,0.23315450336420893,0.49138846989403384,0.021711309680785315,0.7098942498079874,0.4780351396342378,0.9196323397785111,0.28570305239873495,0.6474950144275424,0.2815110771396525,0.6990208063676749,0.4345879500327762,0.8191239245465459,0.35752344463378716,0.42883913127042095,0.03484362964510742,0.580587757040622,0.030737105236328728,0.5126069798848342,0.02522069222775352,0.4325848295540974,0.01683305475080727,0.564131211100908,0.03560178303427097,0.4544428599527931,0.01372635649328432,0.7055587224731619,0.09866125296807658,0.5532332951739278,0.04378149133782523,0.6375797675598163,0.05291384891900984,0.8441251750568378,0.9626692833849599,0.5119943445056748,0.0698020081323986,0.49817874092784564,0.06559162311208014,0.7963428608660437,0.35215589991474094,0.8341254314921545,0.20506159604219587,0.6273903932716212,0.18306140019081557,0.5540293040293041,0.3210634734382365,0.10969778495897006,0.5771716065260303,0.12316280753513004,0.771011445118588,0.2520111860212337,0.8627318072001274,0.20295097127644507,0.7113922283599972,0.4481818816296481,0.6301339038734881,0.25236963630449166,0.6974830310448424,0.42743033114114076,0.8120372562256882,0.34851924770097653,0.8298202465857927,0.9576117222389863,0.7724677439110166,0.3260724992956711,0.8266377631399402,0.2027252745235491,0.7101773186748861,0.3318848493296584
6,4.483759843359539,0.2553240210670941,0.31440114068441066,0.024041989076120325,0.3313818542571434,0.10853699348159279,0.5298858028712504,0.018552190275359724,0.5337448402817597,0.0799144048822886,0.9024775217212815,0.4505995797425378,0.8000833689265809,0.37106936172234767,0.8771972181987331,0.43506310303287393,0.4309452207707608,0.016578642145505865,0.5278998857795802,0.3384860843861329,0.906558809944241,0.1952958565166683,0.5652653261857661,0.19375675241781812,0.706929369338767,0.4563167199279914,0.832261447129987,0.29232243258245527,0.41739588725614607,0.030712308555914326,0.5218007608819879,0.02167901315988073,0.5256189024145166,0.02493375768145479,0.4359854675319907,0.014457024133136187,0.5562555315902744,0.03365271839000075,0.41070193820734735,0.014104532840084217,0.6430196404891961,0.06904045556953654,0.5403992953117724,0.04276254318022621,0.6525544576311457,0.06459602462301262,0.8558023997475291,0.9659566976117837,0.5004807890704985,0.04971998896495178,0.4395583937928904,0.04783279009625102,0.7638665030560254,0.35489429613366313,0.877809222736233,0.27680329454427477,0.6074178146595487,0.18487702058051347,0.30883699633699635,0.3346659846957708,0.10903185670413451,0.5621286833436807,0.08027365965043234,0.784160834942085,0.3257220174402963,0.8733522938459087,0.4275537936010561,0.5339198905325035,0.3263442354216223,0.5350399179511622,0.17227735145610001,0.700620896851007,0.4488798408127907,0.8330548176204295,0.29510479666687994,0.8441069653218465,0.9629960331427907,0.7357233745193611,0.30041450398229186,0.8622807942474127,0.25369330838343773,0.6908231321701063,0.3365719452056211
7,4.375706870031215,0.2903595145408747,0.38547794557237486,0.02867542328092072,0.2956601572387372,0.10258241561171168,0.5459659545875744,0.021439516813178537,0.7077120211309232,0.16346842998475006,0.9134336006401251,0.535203988086261,0.8284693509112605,0.38941699073555536,0.8258870429249712,0.2512026697182659,0.5320752419892927,0.022095705248732424,0.573262518087901,0.426067741187489,0.9043073441433159,0.2113614200355614,0.6051289773527472,0.20959143617392123,0.7025925915557011,0.5592286188020138,0.8609142828069881,0.4120770545217633,0.37214048649231446,0.02851248301912187,0.3413742755093591,0.01285951867300668,0.6508230484377051,0.03638276998871711,0.510698343760233,0.018366097297861483,0.4042195504492897,0.021326968592867562,0.47757671125098344,0.016454948894113898,0.6620458538772631,0.07547998271554099,0.5804387659214656,0.05071029071909346,0.7156328619597838,0.10480160974433504,0.8716305082740249,0.9707751373319138,0.4940373803676923,0.05450783570755241,0.3590372662085165,0.03717250840083201,0.679409049463003,0.3122391467993113,0.9053999047345285,0.28967784026808135,0.6187167050240028,0.19858068697601752,0.35805860805860806,0.30901625698268,0.10451829654936012,0.7240220924430992,0.17470466309721142,0.802410111003861,0.3347060091478681,0.8136470059204587,0.22794185155822672,0.5699992176510202,0.3883620501277998,0.5709099526772263,0.16603968271754455,0.7033299488149549,0.5459772312465145,0.8554085530334249,0.41307078196344316,0.8579900303359616,0.9668307761983568,0.6421062371666951,0.2427582127522418,0.8814821017288362,0.24986632426198283,0.7027565007052925,0.34679780723823184
8,4.28815888441316,0.4586672773070758,0.39751659346411483,0.04836583631946399,0.30662315232371296,0.10482710119790997,0.5360117666519791,0.021372021914555818,0.6467182175682813,0.16472172762517226,0.896585103356666,0.521751289548918,0.7966386519675115,0.46126036660277464,0.8734870920855065,0.36086910549490503,0.42547362229748314,0.020902514826848306,0.4990277341275836,0.3486090461380529,0.894156576048161,0.2799168662177087,0.5469105311102941,0.24270504644166152,0.6578247458501271,0.46323632412832794,0.8421199399436393,0.434911137293265,0.4100755829021182,0.033347076358190966,0.5275665737521036,0.026862623845183557,0.6135911010420657,0.04537603271368196,0.5010938316065068,0.020745065199048954,0.5197669673004416,0.029872845778980334,0.39605398535374936,0.013894696813684024,0.6921947260394201,0.08716112558249614,0.5838937050429251,0.053000465036580915,0.725910702460051,0.12357123815556369,0.8722632379251436,0.9707885243782887,0.5297920554518796,0.1203450310497797,0.4160176878506373,0.05193013523330822,0.7979468783727732,0.4191793855516111,0.8599098378717702,0.33822595078145196,0.6209322444358018,0.21510179926768203,0.5032051282051282,0.3156971648062902,0.10631558226086561,0.6800496670721419,0.17228516405252156,0.7793345801158301,0.4010912066485637,0.8661267787925451,0.3205513654270315,0.5071179951003477,0.32862966993033826,0.5038311445131967,0.1978590452444431,0.6584622232113052,0.4607745310065432,0.8398566798472108,0.4158099329637648,0.8589175595562287,0.9672371639064309,0.7713271542702981,0.36270666101912763,0.8448730353665042,0.3093897761876549,0.6932358166047181,0.3675136453315714
9,4.205438035343014,0.4537821540340432,0.518706839058012,0.04312710642064842,0.3240595048709381,0.10690324856640623,0.6182487772958366,0.02558379175132104,0.8645132894249521,0.3075280764627423,0.9423393765802531,0.6388746306458599,0.9189305684596367,0.5340860603027058,0.9186446030782085,0.5656175450861606,0.5826975679325054,0.025877501122936686,0.5369046073318564,0.33084993286585496,0.9517221641476034,0.2876140312723053,0.6843475563211978,0.29859451840958234,0.763728121460636,0.6121870035803586,0.8743186551135522,0.44382018937204926,0.47326087000196215,0.035041704575047405,0.6334224496458046,0.037963413732056736,0.6890075656281736,0.04514066990980974,0.553902537899139,0.022091867438844698,0.5394268026755694,0.03327310089789407,0.5086175331356291,0.02804404227153762,0.7006375642387029,0.09554907521921052,0.5864388701453923,0.05328671318383214,0.7479929622558528,0.1502910057565816,0.8737119869868357,0.9709967569479271,0.6619124335066751,0.12099226560081017,0.4528371007343784,0.0463719374794518,0.7809612112957354,0.4088423034716075,0.9261145152547685,0.38237099908763494,0.6899039272029559,0.24633035153448807,0.5068681318681318,0.33115824733479754,0.108539978858196,0.8620450051243114,0.30056419586358885,0.8867489140926641,0.47552285599099564,0.9052344953008019,0.5044571322904682,0.5399162119582809,0.30900497655449466,0.6430210611876654,0.2489182813839922,0.7482260487370647,0.587257706193772,0.8602125837665963,0.4298487858256308,0.8577714452879804,0.9665938290476972,0.7457065424649679,0.34629238493908815,0.9040291268157741,0.3327926933263994,0.7530972438246277,0.41907207457039297
10,4.037863202335616,0.46843752385314097,0.46750515805639914,0.042862003164395604,0.3334572643338248,0.11424690333065692,0.6089041115943535,0.02855262711089038,0.7440676284344914,0.23045426210440073,0.9455030083788631,0.7283597314727799,0.9129221591573475,0.5909213422122568,0.9446848697203845,0.6241352007699436,0.48912226111759366,0.021850621466453814,0.6228927406527651,0.4339903967867564,0.9379475030001129,0.3428924624572804,0.6681788943721673,0.35601095991299225,0.7472771645083254,0.6331421195370814,0.8308680241201676,0.3645195977714526,0.4024318253808276,0.031080322411224954,0.5924417208059957,0.026732079658522145,0.6239452734585383,0.04177252102386357,0.5190141990170315,0.022396879876034323,0.48454108859323797,0.025614235941185913,0.5787599104278884,0.024638403300306477,0.6910690606246513,0.09158660691621345,0.6070894123619663,0.0638784022421959,0.770497229725517,0.1172336293412489,0.8714587200899795,0.9707302235310008,0.5994178784101472,0.18080317147758104,0.36165491144093137,0.03532551873900164,0.8386837154724888,0.4388360361970506,0.9073623711497735,0.37277100602810176,0.6704332631261396,0.2576050838807731,0.5098443223443223,0.3330124058529149,0.11920154701119554,0.7642120184910579,0.22874435388963238,0.8780562689602869,0.5132125367859959,0.9424912387829874,0.5683851563186548,0.6197066037923984,0.39599187459449475,0.6406799244197428,0.2914238897870378,0.7303588516746411,0.5998371972191981,0.8096244275523056,0.3330085909816239,0.8559641112495888,0.9663650757406346,0.8013694563733155,0.36281290412963546,0.8830823399038203,0.3290492259771849,0.7507779679139145,0.42800294113048076
11,3.9325971854168915,0.43401267078848943,0.48077586069461387,0.03871931791058261,0.32407315375762535,0.10759225838653524,0.5185643528121829,0.0236790580002526,0.7790865463696348,0.2929522713914642,0.9372404351603626,0.6365363198617116,0.8965879163003376,0.5025899572384792,0.9378133501410427,0.6227260030751011,0.5113778448169546,0.021536518668445817,0.6201001411018653,0.39540053970992795,0.9664729945655416,0.679773774663082,0.6545698586533714,0.3039960626564397,0.6375316861068262,0.4306298244824963,0.7561676957781444,0.2798995778055645,0.4127120108273101,0.030734889027616945,0.5820302368123712,0.027851366089983558,0.6154200417469408,0.039090831584337196,0.4750968319159793,0.017343617199883796,0.4671456163704225,0.024539452557484652,0.558136007383647,0.025166335336982967,0.7266775925324083,0.11429570597038716,0.5879294404015647,0.059770594111583544,0.7374855293600228,0.19457477801197046,0.8852070046596294,0.9738304916427203,0.7027591986936162,0.18477009087868596,0.40561004223429764,0.040931002832918596,0.8224591972736777,0.448097644642846,0.9170210974187101,0.3923204327202976,0.6635574697736705,0.25590180431325116,0.44894688644688646,0.3305743599001113,0.10913898085358248,0.7985348910311055,0.28486615587713354,0.8459929157473799,0.39109936778731236,0.9343008283332448,0.5428173147569706,0.6189027785660923,0.35919912070162546,0.600177619987914,0.2401332162010935,0.6221020640925782,0.4171385676250691,0.7318431427561073,0.24866017743439323,0.8653119008265064,0.9674030339386528,0.7818652398019519,0.3415670376373522,0.8827660137529513,0.3490595435453882,0.7283974322541766,0.38646204694168845
12,3.824743916829864,0.5988855812533395,0.5190980110428242,0.0503242681417021,0.3647317399271216,0.12503765257990931,0.6357267495904803,0.033499325430872494,0.8369743932235023,0.35697174525821823,0.9688993174865157,0.8247746962526447,0.9432363533531285,0.6531771857959152,0.9677088907197234,0.7771157260057397,0.48180487172432984,0.02274358177294654,0.6904257487206072,0.5219517510970821,0.9736650879701558,0.5811828926276866,0.7525719984874245,0.43327012338003484,0.6968899166557015,0.573618836900403,0.8231101415937042,0.3555332400779171,0.44547461897149926,0.03463906152637315,0.6035021581591556,0.032686231341518976,0.6807661956961532,0.05930659147520871,0.5191906657704703,0.019359645116424358,0.48563862728767593,0.0280176881505464,0.4563362434182655,0.024947462928708516,0.735272587605341,0.1262308714335328,0.5991917602580719,0.07412337929832635,0.8028789201321778,0.14751267880461366,0.9019444526614768,0.977598841709721,0.7227565687643001,0.35300529873480685,0.40839845667409347,0.04557031114863696,0.8566588210816664,0.5023464044624398,0.94174244131902,0.591775162742513,0.6968368791960956,0.3083822464516461,0.5956959706959707,0.36954598790504556,0.12217847497835506,0.8358287321922562,0.33764011329929156,0.9114737744760065,0.5327453237554755,0.96368989937875,0.690773873544954,0.680410748554572,0.4596966936961901,0.7266713514226621,0.3637935295040051,0.6635153555135195,0.5167660317739233,0.8003746664679358,0.31588464325143784,0.8765588301619679,0.9702335145580883,0.8115925091741917,0.403766371503049,0.909426312546777,0.5079126783829111,0.7771898334357895,0.47467193165888
13,3.726759322608084,0.6285779711472407,0.49826177152832585,0.08344860098635856,0.3926686730752754,0.14055822907709362,0.6463834160180466,0.03068381683576149,0.8186338919689686,0.40190119716984946,0.9468152082453096,0.775975839631489,0.9061271513121555,0.6012751182587879,0.9508192750936578,0.6710712470556363,0.5073297220720165,0.021549363385531522,0.6386547051951095,0.4402553847299211,0.965994302548383,0.8239578816205615,0.7511992145673758,0.34310882959941136,0.726153196980033,0.596399344136083,0.8323701433576371,0.3172422991502654,0.4187234348181597,0.03277458115264223,0.6283738559908678,0.02890150516570089,0.6234869078593037,0.04843483560078325,0.5220729560766384,0.019685560567009895,0.5037200760245157,0.03282034998889556,0.5290602493493919,0.06563640914716103,0.7933700966122285,0.1584591303019688,0.5997117031702566,0.06493060597152511,0.8236391279364658,0.16795622768190982,0.8868211680305397,0.9741809309619421,0.775049176075569,0.3278672037740983,0.4453532738859805,0.0441167861910957,0.8522803660995915,0.47548355966661465,0.8937708996383082,0.5512459411594951,0.6991423690196338,0.30518225107287383,0.6341575091575091,0.39011463128441193,0.1367338405785028,0.8263890279655918,0.373019086304673,0.8714503326668506,0.46214026806155206,0.9461716136568789,0.5784252568908699,0.6243887323338697,0.36980404573004333,0.7051130512124333,0.260523192314695,0.697194976076555,0.5369045178960948,0.8070520295407853,0.2981153020083627,0.8612837427006255,0.966701976110304,0.8075738361305638,0.3503758908703036,0.8287414354177781,0.4507859186448442,0.7604975826351221,0.4348662995827496
14,3.617616282939074,0.523624150828181,0.6302437472266729,0.1545636052393087,0.3885328600175525,0.13169017807442454,0.6657051427500706,0.035806851342741905,0.8973919567646652,0.5015100536250531,0.9514506173209526,0.6927354468817215,0.9328299151584181,0.5625608204250648,0.9414426753405014,0.656263498196774,0.5717336584100964,0.03569596057542464,0.6521308947617774,0.4554363671606693,0.9767460876983225,0.7623783274636513,0.6726340994672239,0.34943777001369714,0.7758455512845995,0.6188172892760159,0.8269056317881877,0.33686601270720307,0.45786587207460716,0.039744149442845184,0.6023017740910034,0.029818084570024314,0.654136443900204,0.043659537189910086,0.5495459446741136,0.02692252942643087,0.5125400113419846,0.02936394764867298,0.5745182851177147,0.04196860013791534,0.7564294317101529,0.11817777724197852,0.6028491795727827,0.06881398514775638,0.8379391533812008,0.17205206458996536,0.8850674331441819,0.9745286774983134,0.7829327412771827,0.4336404853364213,0.3697602325604765,0.03625509581735505,0.8588437394908829,0.48854601062809777,0.9322459374882958,0.551398301590896,0.7133544080671788,0.3092093121203086,0.5824175824175825,0.38329412000681967,0.12625072696554185,0.8888803749759456,0.45420563762136046,0.8784317041850526,0.41972480047340255,0.9239707229331493,0.5574769285302056,0.6303537598004549,0.38635049851135717,0.6286577269748321,0.25943678729245856,0.7377767886947814,0.5481623359076846,0.7943800029809657,0.2826818464287488,0.8635027452460484,0.9684230757969887,0.7913793352434979,0.33222353389174025,0.8955058944173603,0.4292761761899284,0.7651030159508099,0.43311021341903794
15,3.526371897327,0.5263720326692619,0.5727750941270563,0.11131612330917987,0.4572458755424597,0.15772925384215272,0.6715000871007457,0.038714837572027844,0.8512808163718669,0.35653560441464843,0.9470204709516019,0.7465738783513471,0.9109382331169361,0.6005365316180823,0.9299453139415617,0.5440515774694952,0.5133569235342296,0.022126017102535825,0.7226791264096118,0.49297249056090703,0.9629566193647054,0.760672611166802,0.7243728815863486,0.3052086897294228,0.7209691492647765,0.5381566123858631,0.7136044224353145,0.1905459219753571,0.4523274899699382,0.03533450317972131,0.6084977131793821,0.02495556074261241,0.597108528648101,0.04690323245621503,0.5512345554124338,0.02640460787391357,0.5149956221837828,0.030458926954369046,0.5654216849240453,0.03897851802622289,0.7518155417253948,0.11146159030393753,0.582193678314531,0.06987660035494345,0.864443805049516,0.23986462585842475,0.8866532613728313,0.9745393673855003,0.8036548157182655,0.4107229589321578,0.37425807833043756,0.03566168836020151,0.8518278513866747,0.5090325185271295,0.8752713377078245,0.4267199549080185,0.7029018139877915,0.2905946223467107,0.5776098901098901,0.4409882560600134,0.1474973478900607,0.8482376635578307,0.32955664634813703,0.8432059690430227,0.4228726069532252,0.9276618833961663,0.46050720998717176,0.7021936451786592,0.41136696457909105,0.6786876228817527,0.22876174202227614,0.6815322131968399,0.467747869121904,0.6892647243629647,0.17361511474861813,0.8567477386466016,0.9661402822291681,0.7791786363949986,0.3266309122649482,0.8357295556134454,0.39712349283023474,0.7530389007574815,0.39380183536134866
16,3.467096000197789,0.5211052591405236,0.5643043233347416,0.14489616803116584,0.38695121455942993,0.14470666639788093,0.5973555774486655,0.035194609681021345,0.8139480064536053,0.45115230746127777,0.922528185729438,0.5493298818502191,0.8625528211134741,0.3912275466269588,0.8924148215655582,0.39180316343520427,0.5442815898404024,0.02985682289342606,0.6308627194800897,0.38873694341137144,0.9776855705076213,0.8660693803016609,0.6734368949891703,0.3157683805024783,0.6543541664528078,0.4982556736441973,0.6778611836505894,0.20607809590267406,0.46017273604547365,0.04115009536343221,0.5959012085280649,0.03187196725235688,0.6169860544317941,0.06567007367021926,0.5560577926744192,0.04668209527774523,0.5071914825966974,0.03451942510963621,0.5427788158929976,0.03847718679271799,0.7077559163910578,0.11488034394991954,0.5850116747608313,0.07209397336822275,0.8055455620843115,0.1804666769100444,0.8734377469365769,0.971850393551192,0.7976947343116365,0.4215512641068746,0.4789255595703032,0.05132149507384141,0.8425235657878218,0.5281932958768591,0.8572474138043942,0.5020090738191085,0.6824358273682214,0.2782893703800632,0.5560897435897436,0.37934270040416807,0.13144540003883642,0.8175214006392981,0.4431389636627053,0.8192535248896856,0.2493750010926843,0.8851318164923272,0.3645149284162518,0.614488182695361,0.3289357028167583,0.6195655411903891,0.2160233122314011,0.610566373650829,0.4256809433154266,0.647159753456605,0.1631555596488731,0.8422027252455165,0.9629296038151638,0.7693131377206499,0.33514175531288215,0.8070575878993876,0.44040048562346734,0.7101457040258379,0.36915833236131373
17,3.339383288918811,0.5172124265323258,0.6853871232592805,0.20240156533829098,0.42312497250183523,0.16461507640169415,0.6155384070371547,0.0474205782252404,0.8883569890061611,0.5505930064575165,0.9526469126930451,0.7265569462460245,0.9009803187687231,0.5967693225929078,0.953146173512176,0.74110321536899,0.6033769404205127,0.05279254609252009,0.6523913168043312,0.48600970318491826,0.9735099440199964,0.5402364483707321,0.6851176473464281,0.37563382331782624,0.6651461534800515,0.5646597825455676,0.6208459930380179,0.19742487257693975,0.44320140618418347,0.042829506836965237,0.5588449964720753,0.03290683431594083,0.7049981109375377,0.05690920993856991,0.5799473072522215,0.043191823434974935,0.4929065140481631,0.03098051670843183,0.5926530442413604,0.04750985742299917,0.7015865677893196,0.14042277339808878,0.6273098627774332,0.11140388909419943,0.8283160724787384,0.17813598845527331,0.8867179807172308,0.9748679202553664,0.8441760329923487,0.5110958733975812,0.38358075006525433,0.045480599530775934,0.8424703898845007,0.5471960062982784,0.9526844711537026,0.559767313987098,0.7058874962548808,0.3173672222145819,0.5695970695970696,0.4120219434164736,0.14764951730200693,0.8721752070404641,0.5183957575843905,0.8227687189740761,0.3803027428999459,0.9407049792916689,0.6132999710650323,0.6278684978746185,0.3915463826529311,0.6291545735418033,0.24224375729365266,0.6213288639145433,0.4696821080945339,0.5871163833288033,0.151964377138077,0.8541090528090547,0.9652186547911157,0.7606799572325685,0.34420059917647017,0.8991756912656768,0.4197217263838047,0.7297367153354319,0.4222023267619965
18,3.2432936558185865,0.6079688573391344,0.5988008598310628,0.17659887971131585,0.39218708780584866,0.1509648654645263,0.6329644116600817,0.06679288253972353,0.829521963093047,0.42735198694577525,0.9076513065309507,0.6098847035059619,0.8380950004574527,0.5097511588548308,0.9011202070786805,0.4780095589536092,0.5408006122068222,0.02778036183552554,0.6393329472180245,0.39895894323274245,0.9588212153826773,0.7032815792518639,0.6629491859770272,0.27400561689234965,0.6990468582655439,0.5236621466852269,0.7840308938761958,0.35334691903095977,0.4539981624109918,0.045442776794084726,0.6180101067684827,0.03518672820998012,0.68168728111661,0.07388080335170646,0.5782399633128992,0.03876468248082754,0.5331814741258012,0.03403426474210751,0.5796544967620891,0.05932890857307966,0.6976053758040157,0.13615123934828277,0.6187279469735556,0.10683558457333517,0.8432614842537531,0.19622079750684707,0.88276560630994,0.973905123460401,0.7753878245080591,0.4616707810191233,0.456296159541599,0.053543114446957155,0.8654832705552065,0.577694512716428,0.8967116983287643,0.47822879372516197,0.6987530888946364,0.2952325079204716,0.5867673992673993,0.3761458615398502,0.12774732863315294,0.8331607814727193,0.4144406764960211,0.7743855143408714,0.3225088089118397,0.8841138228110232,0.3668895597939748,0.6205102756169435,0.3332193890284341,0.5961680043577806,0.19350505667661932,0.6452550906865473,0.44438564672393266,0.7484743008612652,0.2749818171293067,0.8452113662767717,0.963192353916064,0.7734240741701508,0.37267960246609355,0.846881603049963,0.4239922125463586,0.7221573359258079,0.3852311320292543
19,3.151665193453498,0.659415311808259,0.631829857872795,0.16535002145138583,0.4300124055688527,0.14692932098577727,0.7459048010809276,0.05677387685112319,0.8723438217978619,0.4835550038124071,0.9000955066734787,0.45537009097213776,0.899446139710469,0.5125588725344197,0.9324993363831445,0.5962424069510761,0.557801367978674,0.031198955370449834,0.6597112212478664,0.3944399035175668,0.980366113202043,0.8568845317574465,0.6543131715825172,0.3339053151169291,0.7689309109889859,0.573908315531915,0.8130090111658499,0.384151288293027,0.5018113042529069,0.05466339405117021,0.6674068692902199,0.047062745507833285,0.6851395092724833,0.07746799500799877,0.5890763707645169,0.058788751278632305,0.5417649599115419,0.033148181990163866,0.5981955077770381,0.08033792322600437,0.7014993230713616,0.13891214169166496,0.6493786068623051,0.15378706756859492,0.8836175083369423,0.445350505989257,0.8913373647819227,0.9754365808146561,0.7886620897817911,0.31223536755065934,0.4709984800187788,0.07118826870714076,0.8790636628026733,0.5989329100558717,0.8774294016450641,0.547819555351934,0.7248757268082596,0.3180147885902682,0.61996336996337,0.4143631093861259,0.13668076300557216,0.8558348796243972,0.4450871946619122,0.8070165988692773,0.33428432117001294,0.9072057691286571,0.45989783057150135,0.6277281352635365,0.3281175175511394,0.5791007396311207,0.21395860867267205,0.714397741181707,0.4704326865769916,0.762301305487607,0.29666744779584636,0.8608380113569505,0.9662082338522497,0.7944435500391251,0.3672049503783077,0.8141893987322145,0.446985838765503,0.739765385336429,0.40595685390924624
20,3.042013331648321,0.7202503625677429,0.7360905187417133,0.27597499379621243,0.4780618082151959,0.18779802384595937,0.7772870533159033,0.07176803584538824,0.9181623320140065,0.5504394316375321,0.9452457235223526,0.6267636096254424,0.9486698277384662,0.6467098323743221,0.9698522766213615,0.733486833814824,0.6814105422267759,0.06825160178319395,0.805916123844749,0.6243446976343722,0.9904504699624075,0.8921909792463796,0.8019265423017312,0.54550783729991,0.7645285446367773,0.5857025470751179,0.8334312471018106,0.44290865364192694,0.621248646418811,0.08775878631273168,0.7746961570600583,0.07358322171721646,0.7345023191256186,0.0881236211622842,0.6588380619679304,0.0610315855932472,0.5646063643244756,0.03370266039335336,0.7194021212854809,0.10124161822031223,0.8004115448050289,0.19286089431099923,0.6555551352977863,0.2449379418759055,0.8983653442706376,0.31079575431279216,0.8733418323778785,0.9726784312994008,0.857102806982839,0.4755594722037828,0.5264623345355245,0.10213294468930187,0.908580384301642,0.6074875977611458,0.9403126550275513,0.6355468967593495,0.784609582149056,0.3792329075641631,0.6932234432234432,0.44811124148790005,0.1583104553563603,0.9030368837221049,0.5110763793034361,0.8401917143546609,0.367663539120938,0.9496619962300217,0.5919660447759045,0.741279646807786,0.4868664670436315,0.7014228749436127,0.33508642314157056,0.7077014020251474,0.46403357615222784,0.7807464688708278,0.3178938957491131,0.8408657133686979,0.9632156753985214,0.8114574569424068,0.36623612010740364,0.8802891593167356,0.5102905938743181,0.7822513234609001,0.461149015456675
21,2.9570868087628353,0.7328448210060301,0.6611754788722289,0.2192501773548433,0.4078556757370087,0.1712342172407332,0.6935610956834627,0.051076760472132915,0.8767926140815517,0.5332322198376701,0.9680582284997804,0.8199551132396532,0.9379515511072559,0.7181144907131143,0.9471235882086574,0.5900481350754705,0.6050206651424741,0.04319711840652829,0.6429370384454189,0.47787781196242163,0.9670668290300408,0.7932683477665022,0.7256475222035808,0.39920368896802894,0.7272271262003704,0.6729055877102552,0.7776060977841208,0.2937840094966253,0.6130460448642266,0.10837022309499353,0.7043426323177062,0.04861417353365488,0.6385046194945888,0.05813128196268982,0.61493867873984,0.061621568482997324,0.5515080331147985,0.0456649217730049,0.7327218120196092,0.07830060543065231,0.8074536881748648,0.19159163199149767,0.6470307107567498,0.2260828349536635,0.8527638711721259,0.2136202731598269,0.8749163428928926,0.9727506561993209,0.8409217001592367,0.5436610477469842,0.3801097097142492,0.043114602232513594,0.8970064961394906,0.653872701914774,0.939129878822596,0.4927041849700347,0.7419413973844046,0.3526388290996514,0.6833791208791209,0.3858081856565474,0.13013258597258864,0.8649010359206825,0.4876041490870273,0.841663291161059,0.41580477319557635,0.9251446928264218,0.4713303199601838,0.6051012221518279,0.3518501074870157,0.642409844158276,0.23094953985631242,0.6576371425392233,0.5283948711755797,0.744431293125367,0.240922175721628,0.8439524985546064,0.962672651111094,0.8011137931384908,0.35675389042269623,0.893904622496785,0.40462571779227213,0.7460061474299352,0.41645825288927035
22,2.893009232315487,0.7331501412105946,0.7386486224369142,0.2821683996253868,0.5176688289353192,0.2864381155554532,0.824649364603721,0.07593638297452251,0.93683990184464,0.6378119458452195,0.9402441470157097,0.7495608588013469,0.929011285628107,0.6807949270304574,0.9428860105201531,0.6710253185757711,0.7538602865608586,0.08612659108106087,0.7886464671253104,0.6368894269927858,0.978435211930614,0.695423124137519,0.8977931411068155,0.6193091647836524,0.8603867128166317,0.7950025263620132,0.9025336712956343,0.4764910818579124,0.7469531448286669,0.1387813977929284,0.8155862069437495,0.096426499378119,0.7481179712808915,0.09530755835684711,0.7453569761316539,0.06715626590477562,0.6592678013396829,0.05910416468229638,0.7983441641953641,0.10726412162447484,0.8652573110899855,0.2424941546853165,0.7020263148604828,0.35386637909328167,0.8974219090965772,0.2752740568455135,0.8847859611974843,0.9750062829358361,0.9003176548497797,0.565753635029746,0.5883278763628361,0.11495829208489378,0.9333887462918976,0.6377664762650532,0.9618916859621754,0.67560868033832,0.8243943472685799,0.4110276232829816,0.7509157509157509,0.46353842605128825,0.18355729100603724,0.9005065100958076,0.5255759987690228,0.8090289747655818,0.387977336572486,0.9025463946264536,0.5184417927873772,0.709920338465645,0.46336063406770855,0.7991590845256232,0.3878892304408713,0.764308167352843,0.6274292912936172,0.8603195478284251,0.376336364610487,0.8472454823024438,0.9610525313677809,0.8403367052711019,0.4017376380353284,0.901742481568316,0.48732296315291157,0.7998774648048663,0.48369827928214804
23,2.786843055678218,0.7933745515609495,0.6620076430903965,0.21437627321055633,0.45258926728144994,0.2164559753822648,0.6549599116988745,0.10548792161876953,0.7538859058907011,0.3454656975688152,0.9498771078390487,0.7007216059039046,0.9185631385073929,0.6995028627373756,0.9201440581652407,0.5400508073030404,0.60920492168749,0.0560759771633611,0.6940791172390517,0.4912983281658235,0.9801042249101071,0.8281697876079139,0.7059909867957308,0.46172325499077926,0.6608663476981165,0.5384378171535237,0.7463129477706717,0.4126020743605877,0.577032246874458,0.1331585883213125,0.6417679932712793,0.04122844494991768,0.672152037373962,0.14717460521087433,0.5705747121269003,0.08344863009199924,0.5646668707274768,0.04646982344049925,0.6913022756158083,0.10826830757325422,0.7442019628323597,0.20445444910038754,0.6669532824653329,0.2836568499435867,0.8537481695798922,0.2685263183437154,0.8710936523234326,0.9715584284668661,0.751086851859979,0.4309552925605498,0.4106480881449968,0.0754928626086476,0.8932372414199458,0.6479165246416818,0.9103158650097918,0.57550469240353,0.7232358084518477,0.3565993407712422,0.6952838827838828,0.41323023538024894,0.15463196882845906,0.7517255911678989,0.32503858233500776,0.8130407990899062,0.3687488358723668,0.8985399630966918,0.4043219328684492,0.6360853097871857,0.354431096066724,0.6084880969606182,0.26288942175289143,0.5883231334149327,0.38403103346273604,0.6994455988380079,0.2845850399096432,0.8352433416262072,0.9601778386925431,0.7688237405242808,0.35100940639137335,0.8452565549807931,0.44563769961618593,0.7143820331697065,0.3905002596178528
24,2.684666459892153,0.5860621326616289,0.6957259042707246,0.20135323479609213,0.42532674054254616,0.17193929902765623,0.6520621650463976,0.04284946797536871,0.8164781653140296,0.4416590296686727,0.9456336417782996,0.6421167067899194,0.9076697700064631,0.5661706389565453,0.8898810308332928,0.48126487331644896,0.645008269219215,0.05237867262619895,0.5969034150304195,0.39475745146530555,0.9816136738838808,0.806581194414033,0.7802419405327905,0.5297499133149782,0.6810692289913607,0.5194301886098742,0.7915412963666728,0.39633733865859977,0.6247350597115977,0.13891685680897872,0.6892943740038147,0.04971824066156991,0.6527424229838612,0.05666127677193656,0.6178887832336352,0.036475603266748896,0.5762900321039856,0.038757068292626484,0.6323382557646916,0.10595887856438481,0.7922413029008,0.21962179600354567,0.641887932382206,0.2259886311857704,0.806746604138898,0.20673198412234894,0.8541921383320419,0.9672577858258025,0.8039585840172351,0.42533474302384533,0.49413207113996527,0.06097788730430079,0.8930642363689684,0.6917861045557024,0.9310120933840588,0.513755453511268,0.7340621900845129,0.3327603822043897,0.5434981684981685,0.3989128581600827,0.13427928842544945,0.8031158599395531,0.39569863750924317,0.8196079529784885,0.29696066908397484,0.8644799022991557,0.3636427763084655,0.5502287987261517,0.2901269952732069,0.6659781387510533,0.29589431523717397,0.6167856348058306,0.40536488201877996,0.7421587451888091,0.2449736990645956,0.8232022199497473,0.9581651318801739,0.7615079210139668,0.33342420637846787,0.8612454980379508,0.3938826330514734,0.7188385027137081,0.3738557485664549
25,2.62868290224218,0.7514693534844669,0.6962467749692444,0.21348485331774902,0.4485802352364468,0.19551052009992237,0.6690896288629913,0.046767710073334565,0.7649831691220247,0.3781733695120867,0.9405293911019259,0.6677226003505531,0.8732427209973741,0.5205195822999582,0.8744933467897985,0.430709377430762,0.684452286763241,0.05415087031378185,0.6058880719630446,0.3647594259970328,0.974660926487846,0.7611738267250904,0.7651600993930499,0.4528100562906476,0.6746920510138155,0.5350629727206548,0.7484091030298193,0.3258104692001017,0.6555936972839979,0.1439365169899262,0.725785981238695,0.05131116778143627,0.6661011760418648,0.09028627537927134,0.5803023014112095,0.033907546696855306,0.5984927973652429,0.04400234083460847,0.6620067481692187,0.07941713847739656,0.7731042956726967,0.231769422912169,0.6683478658469959,0.3398010644694986,0.8925351718699184,0.3119209316362038,0.8778492241932023,0.9731701116905089,0.8355054540738357,0.4620793551364756,0.40214067672274634,0.047150786735302624,0.9000307381169887,0.6634983664067035,0.9237096710078402,0.5281263541119048,0.7363679112868545,0.33137159309592357,0.6394230769230769,0.4028067113959342,0.13411584985054312,0.7602031264829808,0.3471146667139043,0.7938801365140651,0.2639666272333514,0.8346917644560081,0.3008356432437361,0.568003153940201,0.2743934001770517,0.6494119762364776,0.24033088708271635,0.6026710804495382,0.41209885176469224,0.7045857188364882,0.22489565193176575,0.8431025670263727,0.9629335739063037,0.7666746717428479,0.3442134105620173,0.8616620975111541,0.43725952681149205,0.7079720913265516,0.35837800811614307
26,2.526699629769727,0.7665063735592703,0.6806713045996711,0.18912080256474476,0.43091784109436193,0.15731014151204065,0.6673501757385631,0.06644715403025712,0.7210622448882134,0.34393857241336423,0.896044672426582,0.541367138987517,0.8675470063265469,0.4515752060496019,0.8647008636841153,0.46315466136029654,0.6359051711870678,0.045812166521092164,0.7070586753145178,0.46547595230478167,0.9759933522364377,0.7279880469519306,0.6532075389797651,0.3131422172921051,0.6148694901013676,0.41286672407587055,0.6817298912624503,0.2786220245048663,0.6330644810250854,0.12209755428962304,0.6680012441837149,0.047783506573025186,0.6009372295358265,0.05414219452043868,0.5180842829192921,0.02411960070918443,0.48721416656582267,0.030671667903966655,0.7119693003691823,0.12326306710553106,0.7384269534040212,0.2098750251743221,0.6416583875886114,0.24882926324143462,0.8174209654507678,0.21083028487988292,0.8468805275999404,0.9655005642472688,0.7990103539956913,0.44583748429819464,0.40641821668763656,0.04819845487147743,0.8512418468199037,0.6176310457427905,0.8442321651249791,0.3900379792507144,0.7022821610781532,0.2961347593102342,0.6533882783882784,0.40230947438096104,0.12992026414277763,0.7242432606815987,0.328010043489016,0.7900880791505792,0.24952330163830258,0.8240322837572346,0.32689628858300945,0.6443156210546985,0.33890508779414785,0.5412265620345388,0.16606151727370358,0.5715221987315011,0.33850305041048423,0.6218814569323525,0.19088626721656887,0.813352049070886,0.9550532287657354,0.7029482035913731,0.28378528826206434,0.7848165515074078,0.3390181771546089,0.6746123400811938,0.3315056831573109
27,2.462201603004363,0.8232959316082742,0.7764882636779831,0.27194539362003595,0.4701374382771961,0.19851580227905746,0.7822916864900157,0.07519038983825167,0.8343478848383078,0.48613220890645387,0.9222789075742368,0.4720966592507687,0.9489505985292038,0.6386069571839398,0.9468659067491136,0.5819954730858014,0.8005454838679076,0.11611719700610343,0.7833792633056242,0.552851395021086,0.9861146164607288,0.7914006007006084,0.7939044601778481,0.5147363595534961,0.7329630075492957,0.5782620593302608,0.7583902705286725,0.37872157228059816,0.7970910644555774,0.22640122393544698,0.8572862081071777,0.11837023120947558,0.7343412129120769,0.10012440857475971,0.679782342684198,0.04532519077376662,0.6782303894002274,0.05529247807967104,0.8490066876475216,0.13105399205659787,0.8481056425782031,0.33212405418523683,0.6973922164899062,0.4001448202300958,0.8922202722081143,0.23665697376942682,0.8875837245230911,0.9752550551057126,0.8886744042702454,0.6030132765746955,0.5030884039527241,0.08789205996883691,0.9334082746839794,0.7019728127748766,0.912541253556658,0.5825180427695407,0.8035336994628087,0.37973024770609637,0.7422161172161172,0.4234413454884617,0.1438876683088513,0.8025455245213754,0.42637068615442947,0.8126066516133479,0.3313954759581818,0.9051722707481548,0.4234760349884851,0.7051216245860069,0.3954544272714679,0.6627470401988238,0.2999618174125337,0.6504584399688439,0.4320815178851731,0.6982707476671022,0.2539643979262389,0.8472560472464294,0.9610056386555564,0.8006618361647947,0.3773525296189854,0.8385227362005302,0.4250153539520152,0.7406185694912611,0.406360504375629
28,2.437130071881909,0.8269597740630487,0.7417449508838776,0.26686429087250957,0.5382664907496618,0.3112445329682285,0.7746557324733538,0.1067273458321169,0.8355418407207492,0.4939457702774729,0.9150128475443575,0.44714443391109665,0.900068960388507,0.6291530516300474,0.9026654563459318,0.5384244814361244,0.739049688046472,0.08792006342287731,0.7262622044495995,0.5361786667146481,0.9897452500977937,0.8531218165287727,0.8171676725262075,0.563638989404892,0.7320946627982321,0.6552604358993468,0.7333611482040618,0.3072042453842822,0.8088356623523951,0.28204741438883907,0.8330571332173099,0.11267836122042668,0.6937066085031925,0.1114195605415425,0.6354946201993363,0.053339825575464614,0.6280495820312593,0.054480821924987224,0.8039532015977727,0.12691618956826559,0.8119587829535639,0.3160647337975478,0.6973833070251969,0.39772374400388577,0.9235889124987572,0.2858332593950118,0.8698074370698349,0.9717799507794762,0.8738442885337047,0.56233072235296,0.4441706439809233,0.05591285996106704,0.9114215055821863,0.7305749050141366,0.9378497921323955,0.6267660224692571,0.7858799401076532,0.38832209241760307,0.7163461538461539,0.46541504949303486,0.1774944148133438,0.8189955653155958,0.44637025855508405,0.778492140099283,0.31068701631759343,0.8537922131365157,0.36084784358318595,0.6444343540175155,0.36458993682435825,0.6927586474708701,0.3170535745101569,0.6337974296205631,0.4730980250357204,0.6823249194116392,0.2148232159137061,0.8360577530841439,0.9616072752678269,0.7732267107106314,0.3539482457301406,0.8540516624696595,0.4780076663676165,0.7303042222572228,0.40532067935624844
29,2.3773855038994407,0.7592550187008625,0.7754946818545355,0.20317758298294475,0.5224448705212725,0.2340495685004964,0.8292214218062206,0.09547442144626858,0.8374041855047158,0.5341635240308849,0.8985243521037244,0.5216868338069192,0.9347553141575017,0.6401808976858337,0.9476667382471817,0.6931150984296081,0.7721646697213763,0.09940233288057757,0.7956431511253649,0.5966692041100395,0.9860140601967365,0.7293989314174671,0.8107551167183837,0.5877219421488802,0.7654440472113271,0.6440497086883903,0.7534584899211125,0.3416378279368967,0.8631060645124997,0.29723099512175777,0.8831006248977723,0.16371668075102314,0.731731359240731,0.08759997965663018,0.6309604362288119,0.0335204355945171,0.7093258163025604,0.06311877242840273,0.8132856472795498,0.18569488929300154,0.8677993997146297,0.2758238905991777,0.7116298773015417,0.4309131582546939,0.9222880293473847,0.29822888440267037,0.8580228779613799,0.9687749129308073,0.8679290764068157,0.5164775990727595,0.5784690627521116,0.09382685404744778,0.9370827907251934,0.7350913427816038,0.9046162508740135,0.5765946378906073,0.8114199412086833,0.3943459595144559,0.7117673992673993,0.46270120648674673,0.16574063754990845,0.8065282942965588,0.5082004155173802,0.784507722007722,0.3378269120014357,0.8939204123081824,0.49530429049838043,0.6963300162759267,0.40245886380938356,0.6910093113515078,0.32890510054858163,0.6698317013463893,0.46489412477651554,0.6987851103687922,0.2448801246241215,0.8280650086505033,0.9595117318458657,0.7956084758245808,0.36312950470320865,0.8150866899052677,0.427205121522603,0.7402158135292889,0.42709607521794407
