epoch,train_loss,train_accuracy,train_1st degree av block_rocauc,train_1st degree av block_prauc,train_abnormal QRS_rocauc,train_abnormal QRS_prauc,train_anterior myocardial infarction_rocauc,train_anterior myocardial infarction_prauc,train_atrial fibrillation_rocauc,train_atrial fibrillation_prauc,train_complete right bundle branch block_rocauc,train_complete right bundle branch block_prauc,train_left anterior fascicular block_rocauc,train_left anterior fascicular block_prauc,train_left atrial enlargement_rocauc,train_left atrial enlargement_prauc,train_left axis deviation_rocauc,train_left axis deviation_prauc,train_left bundle branch block_rocauc,train_left bundle branch block_prauc,train_left ventricular hypertrophy_rocauc,train_left ventricular hypertrophy_prauc,train_nonspecific intraventricular conduction disorder_rocauc,train_nonspecific intraventricular conduction disorder_prauc,train_nonspecific st t abnormality_rocauc,train_nonspecific st t abnormality_prauc,train_normal ecg_rocauc,train_normal ecg_prauc,train_premature atrial contraction_rocauc,train_premature atrial contraction_prauc,train_qwave abnormal_rocauc,train_qwave abnormal_prauc,train_s t changes_rocauc,train_s t changes_prauc,train_sinus arrhythmia_rocauc,train_sinus arrhythmia_prauc,train_sinus bradycardia_rocauc,train_sinus bradycardia_prauc,train_sinus tachycardia_rocauc,train_sinus tachycardia_prauc,train_ventricular ectopics_rocauc,train_ventricular ectopics_prauc,train_mean_rocaucs,train_mean_praucs,valid_accuracy,valid_abnormal QRS_rocauc,valid_abnormal QRS_prauc,valid_atrial fibrillation_rocauc,valid_atrial fibrillation_prauc,valid_left anterior fascicular block_rocauc,valid_left anterior fascicular block_prauc,valid_left axis deviation_rocauc,valid_left axis deviation_prauc,valid_left ventricular hypertrophy_rocauc,valid_left ventricular hypertrophy_prauc,valid_normal ecg_rocauc,valid_normal ecg_prauc,valid_ventricular ectopics_rocauc,valid_ventricular ectopics_prauc,valid_mean_rocaucs,valid_mean_praucs
0,5.116197949920426,0.43386001068620716,0.2900239770805188,0.022511413088623717,0.43706665729237015,0.150678114750297,0.4284108593210411,0.013876899598157352,0.6086283992726301,0.1775010671287915,0.84718287303825,0.07967856502904122,0.8636255789282593,0.27665469016413363,0.3501670878896103,0.01434016721647635,0.4946507373511796,0.33530217992300215,0.6427951037831131,0.0358395582572152,0.5778832178911395,0.18523005450635588,0.4319084262215812,0.032300861524662175,0.49280436681698814,0.01883477389235501,0.907624320827656,0.7668585943557789,0.5203753210561053,0.021346382653086186,0.5329327957515062,0.03155876820536585,0.6195903792575183,0.08244438710987706,0.569889371344808,0.04576386467736927,0.7401029793255247,0.21184783421078063,0.5470596617585524,0.1288063197978355,0.8811107162282066,0.5148134257474947,0.5891916415218279,0.15730939609183497,0.4993131868131868,0.45091596482211366,0.15721823869454699,0.6049730520358034,0.1618933103474831,0.8541989711608113,0.28523098376085004,0.46749313158462025,0.30745519127321685,0.6169992545214645,0.20686078202489794,0.9055993598317318,0.7457383278309019,0.8843569482176159,0.49226365389057086,0.6835052403105945,0.33666578397463826
1,4.72685995439329,0.4898862682237997,0.6387762271955146,0.06883085889842008,0.6317251170646387,0.3701411331445607,0.5980403942379707,0.02505631854952619,0.862043082281147,0.47478187780536435,0.9450995029267051,0.2895940225626834,0.9257248333941307,0.46521072290068843,0.3973118488717332,0.01553300470511084,0.7526758882190857,0.5846578817202106,0.9411604906380284,0.462523276909099,0.6109730294975736,0.1968588911029739,0.505865507265709,0.038230692710914824,0.4492942865592475,0.0161932992018117,0.8984844083421494,0.7413787402544346,0.6878916388234902,0.08574827411076298,0.6288634007511149,0.04209599482247688,0.5556382080765387,0.06170950104665968,0.5982554259480596,0.05383282471038371,0.8059414809328957,0.1170766157213946,0.8746223365874712,0.47625645274659173,0.9553479685475765,0.7899699764664853,0.713186753808039,0.26878401800452767,0.4896978021978022,0.6261351105793023,0.3796293679239299,0.8389656433329624,0.4561397616684659,0.9093675015845709,0.4357264536812032,0.7180601485137161,0.5394461076672751,0.6528779816282988,0.25829193744933315,0.8950934176845974,0.7169283783894729,0.9734172321255051,0.7808764979388906,0.801988147921279,0.5095769292455101
2,4.481871965595551,0.508281810548813,0.6487676432558123,0.11236505230197744,0.6346676877065108,0.39601796740843487,0.526802236968261,0.020274159022586388,0.8899659082069804,0.5030551492211431,0.9652131917351163,0.3442611895832424,0.87126006447142,0.4632475164352253,0.3652824870809626,0.01470938609114544,0.6083427640978983,0.44177221453517385,0.917688123434466,0.5255383219727042,0.6486776919020644,0.28333043856819673,0.46592278256229835,0.03916716705481826,0.4904357481523276,0.03146559312101181,0.9202285914528122,0.7876361305883792,0.6751326937378197,0.10022360032303823,0.6337203417181754,0.05652215926890862,0.6220045745416498,0.07706550257113605,0.6388139149028448,0.0844983810670662,0.8563680445512806,0.4476407852409852,0.7952024803054913,0.22847974919717687,0.940709072287985,0.7434391892163983,0.7057603021536087,0.2850354826394374,0.5325091575091575,0.6296870301036019,0.4028049033544044,0.8861762508147983,0.5070510398264996,0.8454887835023541,0.4753187447375376,0.5837509517169892,0.4130434179030232,0.6665309865242178,0.291126725862334,0.9168364101810984,0.7620870782256389,0.9475043313940266,0.7100598319525894,0.7822821063195837,0.5087845345517181
3,4.344861970185487,0.5438516143805816,0.7620408769381776,0.18429328144199225,0.6620203976277934,0.4178635523564321,0.5267494164240565,0.021093043494602684,0.9195267289343797,0.5574838585229032,0.9821424338181332,0.5194493599057495,0.8971445721512046,0.44743540349620675,0.4417651960255294,0.01788208054987154,0.6635642938116992,0.45550563527598115,0.9669630285231525,0.7209080859839684,0.6325249999107252,0.23771761345723505,0.5339263174568768,0.05864234099180665,0.6338864085172148,0.035201323024479564,0.9262005220016742,0.7875018421655106,0.6922845157910333,0.13173911161999266,0.7180585439323997,0.0772112822408202,0.6864960102644403,0.08972570412659936,0.652753444852935,0.08656107873522353,0.8955355628281457,0.5003350228421359,0.8666073058307607,0.27032897875054257,0.9576151700671288,0.7675241741396872,0.7508902872853731,0.319220138656087,0.5366300366300366,0.6480150780555101,0.40940866906212253,0.9121385077664191,0.5584008797978643,0.8851603529065556,0.446961129547957,0.6408403546349765,0.4311660104466298,0.6529768833051683,0.23614468448949713,0.9215961854604532,0.7623286708191652,0.9598493212426449,0.723214454141703,0.8029395261959611,0.5096606426149913
4,4.25589603692027,0.5904129455766736,0.6689480508661811,0.19071155226819797,0.6154459726759995,0.395855795896771,0.6261318167644394,0.027635888233254358,0.9202951380990052,0.6405515796424299,0.8946532466124115,0.4109780953548463,0.9464707811954597,0.6337272609028605,0.6517657481747703,0.034967271735231134,0.870551103715705,0.6796904814181581,0.9380665829597932,0.6690187942753675,0.7790127817660455,0.3812116490535671,0.4614373848449732,0.03680982103895544,0.5823120539249156,0.029725918475250565,0.9279676810656892,0.7871859491985561,0.8253500867374319,0.19454335659173141,0.7395716786636415,0.07681340242802269,0.7094838054583437,0.0848515537538298,0.6761961796887739,0.1142320168970138,0.8893439774264684,0.4148547353287365,0.8954495059487135,0.6350484037157053,0.9497790790236733,0.7637940164743239,0.7784116327806216,0.3601103771341405,0.5588369963369964,0.6123626211885187,0.3949362242725403,0.912531995739201,0.5999445954836856,0.9370981981166244,0.5773333364074392,0.8482449994725425,0.6505727416949681,0.7862891976501418,0.43149314096793695,0.9242500636935865,0.7722536833664183,0.948129747476627,0.7351410019652105,0.8527009747624631,0.5945249605940284
5,4.164048408572068,0.5233188306236165,0.7143619814775243,0.2225960026578837,0.593734239760255,0.3525522323936577,0.48210694958078704,0.017622228764936777,0.955337421241959,0.6915917902059633,0.9851435359035209,0.618743211458414,0.8626023370120584,0.383317987414853,0.43413612486604103,0.021271003378456166,0.5939421893321267,0.37074668429554003,0.9633078048542928,0.7491941531532446,0.6724631384484998,0.3147728655797347,0.4842713031588952,0.04587586755299655,0.51241020577545,0.033328570804879935,0.926002919369414,0.8211528376719837,0.7612203924771316,0.23982270338621875,0.695242449730068,0.10941091641614265,0.5977475347554353,0.07683380707602322,0.6860662696071261,0.15613196770775808,0.8564567912982676,0.43474660362140405,0.8048536132133595,0.4572189659084059,0.9788064143925214,0.7888933870045158,0.7280106808127366,0.3452911893226506,0.5119047619047619,0.5898036161237813,0.3442848976238594,0.9499586638897282,0.6719299708025351,0.8348374966044912,0.3758380672326924,0.5676957441050878,0.34081478985012276,0.6866886346537756,0.3295931410341678,0.9231632640335232,0.797545589409582,0.9779026542451797,0.7476261907764715,0.7900071533793668,0.5153760923899188
6,4.117275135215571,0.5460651858636745,0.7232329579821584,0.2188881193091752,0.5461896906677692,0.28247308318100806,0.5315759391857039,0.020101077697020867,0.9041621230511375,0.6288002466108662,0.991314205300602,0.7330909658806984,0.939296763061548,0.48861628004634217,0.45710945480282006,0.021313007540560102,0.5988682109442279,0.4031273432519692,0.9571451862548515,0.6924996443956526,0.7535875958067046,0.3925091287574223,0.5021943858537521,0.05181102423865928,0.5782443125213795,0.03275502823726193,0.9292639593274852,0.8106278662636736,0.8180552099527925,0.25190230573213274,0.6795247828808388,0.11543852941456224,0.6357464489923152,0.08728119313930771,0.7130844734926614,0.16362301045665092,0.8533653428437851,0.37303523486688933,0.8837865843412595,0.49563039808825776,0.9750418729296161,0.8049042714625572,0.7485394750096703,0.35342138792853334,0.4961080586080586,0.5472346820735667,0.2645288352639753,0.8959530358193294,0.6195902676131636,0.9301557972654835,0.46681307768063246,0.5653041251771569,0.37778639448494966,0.7629378257180947,0.4155423658074193,0.9241899970144822,0.7835073075238745,0.9758031169497062,0.7493509407674518,0.8002255114311171,0.5253027413059238
7,4.052946631921702,0.5856804824059232,0.789422376918257,0.2857581679254745,0.6121205787555567,0.38776151760572974,0.5485759581282439,0.019830323650987625,0.923025618653309,0.6608853289044043,0.9868503811904035,0.7004131646206347,0.9618276150189896,0.7369082180927158,0.46273588693991363,0.02240683512762065,0.7739103371883509,0.635968547981694,0.9781385313466713,0.7981935380657331,0.6886768051060406,0.32808888242474615,0.5586307285717859,0.07452558861390624,0.5247026961094962,0.03061348410856965,0.940415079283825,0.8457102994856249,0.8435431478846628,0.3467992824868013,0.6985335898990689,0.11530139851558985,0.5998723685781073,0.08375203553784467,0.748148596423102,0.30008351758779583,0.863892279239881,0.29375683136257075,0.882757626576961,0.5983513480082802,0.968040478966282,0.7593743278477237,0.7676910340389453,0.4012241318977224,0.545558608058608,0.6040164655675831,0.3732447386208598,0.9228986152403058,0.6636210668442452,0.9483536026349149,0.6458620977318594,0.7346856696647663,0.5764660297561338,0.6986174345934054,0.31779725432888956,0.9303379234287282,0.8102067942080567,0.9713218298123958,0.713117049505194,0.8300330772774428,0.585759290142177
8,3.9794312762209554,0.5366002595221738,0.6824224819538062,0.26518709447085503,0.6167481451247762,0.378883886942323,0.5027448469005633,0.017295471383442423,0.923340981039364,0.6738574130495512,0.9843360124684444,0.656431318024767,0.9085499332140633,0.5617016017944839,0.4917180751073553,0.022141670260529787,0.7308691386135885,0.5005800413236039,0.9481024089370144,0.6529043345612264,0.7174860404021887,0.35206447420823783,0.527114475560039,0.06495537390711449,0.5524978501174087,0.02944855018228766,0.9441554623865527,0.8520054854587358,0.7905902469836854,0.3091825584234993,0.7186032978640168,0.17461490677725147,0.597490479843508,0.07846733592902493,0.7356928285533214,0.3175746467229796,0.8933132739481752,0.5246208272174049,0.891487128967319,0.5369963537398839,0.9566152625177546,0.7390010122272354,0.7556939185251472,0.3853957178302219,0.543040293040293,0.6159925087077521,0.35839665177732344,0.9267357191688261,0.6779292099738797,0.8880500724375227,0.4830241580952855,0.6960860925481707,0.46456296942937003,0.7327636672970457,0.3824500001310241,0.9357882109979544,0.8213007866642092,0.9641559053750636,0.7040319094474433,0.8227960252189052,0.5559565265026479
9,3.9353384277891745,0.6422410503015037,0.9027602617920514,0.4333486067043921,0.6659875782867827,0.4470794626622714,0.5951733315265064,0.027529222169235194,0.9813745397066744,0.8156310584616606,0.9945190796956529,0.7981462086239423,0.9665875446193988,0.7696141942389235,0.5932777712244913,0.034338650496714265,0.739241808695765,0.5675362656452724,0.9782708672554379,0.8160948210061503,0.7876099716344306,0.4353926610218526,0.619113941991046,0.09524272216860878,0.6520087944167106,0.04483248091365381,0.9366405138667274,0.8016437454865355,0.9034169656573647,0.3611196666610768,0.772586749863078,0.1503678733601111,0.6778255242456954,0.09485052929374806,0.7842331052174162,0.35020688066419015,0.9246494606928451,0.6061624464942424,0.8909253700854335,0.5760769433746754,0.9820108491409897,0.8125308608704013,0.8174107014807248,0.4518872650158829,0.5828754578754579,0.6524290212788979,0.42489799685075863,0.9779678532250116,0.7708222037716125,0.9533068012042738,0.6771374292603075,0.6997530695739519,0.5135142813067474,0.7940112462068634,0.44845604455569116,0.9250495104692913,0.7585620885612068,0.9805831565628373,0.7631503950959423,0.8547286655030183,0.6223629199146095
10,3.8853819320587863,0.5530112205175177,0.7986975591911539,0.31091383209476237,0.6088453598387715,0.38341451861138953,0.4975746263219708,0.018965469967967555,0.9511769401299462,0.7428781549251557,0.976980790424719,0.627503277654272,0.8902959794763585,0.5620197557586276,0.4675552713939007,0.02346140644301841,0.678652203458001,0.4542319732292449,0.9483040888619748,0.6999941013781534,0.7021320897556609,0.32485169759988164,0.5129415491842231,0.05830361261592835,0.5099339226260322,0.025962414004622722,0.9488119842306331,0.868378784968912,0.888484799504317,0.3855978491060204,0.7176626926688052,0.14763979806717217,0.5676835365494763,0.08027836663505222,0.7534971330014978,0.3721732173719163,0.8834641434180531,0.5322524373975692,0.8897145408238911,0.5658905393467069,0.95206405027393,0.740086180910021,0.7572236630566658,0.39623986940431977,0.4967948717948718,0.5965741022144502,0.36197770969477255,0.9422145026153038,0.7195314824528093,0.8621189956084752,0.47146790976268327,0.6506140867874162,0.41620765834545415,0.7124545223792198,0.3369757772455139,0.9354222114871416,0.821242055499964,0.9595516025124152,0.6852865060133015,0.8084214319434889,0.5446698712877855
11,3.8448560420233515,0.5794214182123502,0.7169065582023709,0.26870652621875135,0.5625330759490452,0.32268329305088084,0.4465845871837689,0.016079146372528885,0.8963189742852152,0.6317597938003634,0.9552550810675853,0.5020854342071664,0.8805842410488555,0.38403932862256973,0.5117934058322018,0.03441725339803818,0.5985922455274821,0.38695980151774656,0.9619452743376323,0.776807148161953,0.7440281132194505,0.38732461440233495,0.5907349079176636,0.10118388764966074,0.6075450657639204,0.04104983193289617,0.9405366734337659,0.8470455115167823,0.8668032772358018,0.35044064107949,0.7773007784993349,0.16437474768304067,0.6173586789860117,0.08532043834375656,0.7586676483888158,0.36006409321191685,0.8877339169793835,0.47789456030578464,0.9062653412891132,0.6038278051969811,0.9647531988516912,0.7235862213293686,0.7596120521999554,0.37328250390010054,0.5192307692307693,0.5585106044429028,0.2984891697620395,0.8994570660900809,0.6208736760583194,0.8482455122691054,0.35044117850389334,0.5752699206978952,0.3623728369443038,0.7415196099729477,0.40062473950147276,0.9311845836322881,0.8149298495843933,0.9704410785687999,0.6716922671447578,0.7892326250962886,0.5027748167855971
12,3.8128086456350947,0.5694985115640028,0.7257040098226348,0.21014780494596114,0.6074552811391227,0.40558967647557276,0.5383486257915797,0.022063253713697845,0.95508847024843,0.74831727612727,0.9793859593817227,0.6270976031850621,0.9109463295427002,0.6036610878647226,0.46452943080942566,0.022291411236373147,0.7238379562730397,0.5872779077351323,0.945799023043387,0.6567828639702791,0.7126380634279368,0.3573418440708537,0.5990063944909002,0.12611410763628247,0.5177947928548943,0.030576671848752436,0.9429689864860552,0.8411028557911233,0.8741109147378489,0.3508366599419265,0.6991192981769815,0.11722565838427636,0.6355228514993692,0.08657172691730583,0.7739889018328282,0.4229211800375705,0.9184572546845455,0.5957107997636808,0.914094876297729,0.6612080571306421,0.9684862830886192,0.7557620590895896,0.7703641851814875,0.41143002529330364,0.513507326007326,0.5934995377611729,0.3851308112089772,0.9434879727817613,0.7176566660488356,0.8737528578866354,0.5196686541803055,0.6822320171354924,0.5185621816363764,0.7153924166996338,0.3496788278011658,0.9248072075942608,0.7808818311073847,0.9672716145865637,0.6761233665237201,0.814349089206503,0.5639574769295379
13,3.7606742980598304,0.6065185863674528,0.7937590774256873,0.3071726195192997,0.6071921179113474,0.3636921725502004,0.5343129540745404,0.022349338902347873,0.9073014372746233,0.6757080532807082,0.9920876826195838,0.7779666125044349,0.9345537137049119,0.6946009358293549,0.5755945643417001,0.0396268383501739,0.7731605630239426,0.5790900430881055,0.9863785061075668,0.8481020878547432,0.7671217100760264,0.4110984885800119,0.6758966043335807,0.14566743426945306,0.6607963969194328,0.04814865520072024,0.9455442437620745,0.8472723232835699,0.9467360566122137,0.4910477210575991,0.7908372290900556,0.205211896194852,0.6891783581301857,0.10978018901312184,0.7972345357748628,0.36252790223411346,0.9178130650106122,0.6001058199442645,0.9027331793575851,0.529716023806362,0.9857130764806806,0.8523253475256783,0.8091972536015607,0.4455605251494557,0.545558608058608,0.5968804050516896,0.34631447658958187,0.9110367414426304,0.6529332359198261,0.9102248675751541,0.616527082770847,0.7309699601425511,0.5019054168367171,0.7543165150936536,0.38222840264624236,0.9288559817376935,0.787115351348504,0.9841289039402247,0.7629707666339894,0.8309161964262283,0.5785706761065297
14,3.723960828548187,0.517288756583467,0.8449331213305469,0.330932867825658,0.6341642488744177,0.3803811765146296,0.4529642160848393,0.016539522045652975,0.9657566715930956,0.7648781353785118,0.9526330257413856,0.46668645832507893,0.8847975926293762,0.5164661028586995,0.45554069214417114,0.02343324422150321,0.6273009200469024,0.4208284271915872,0.9384153145465749,0.5555823584655161,0.6674210781297055,0.3022039629734181,0.5107775934371014,0.05865501961395996,0.5452810928899192,0.03676667082733431,0.9571309940089391,0.8891014079143942,0.8871055786311862,0.38031644721204344,0.7421206282763477,0.1372873800041854,0.6356164829495403,0.09297727788539864,0.7677430308654116,0.42186515460151053,0.8992939565327122,0.5434605301858395,0.8128308364441487,0.4438782128395631,0.9543292106757661,0.7300457781314376,0.7568078142916044,0.3756143067507961,0.49862637362637363,0.6154137156841373,0.34133983257356804,0.9566352406238572,0.7209573726606776,0.8509116941325605,0.433158889353938,0.5928967513197907,0.36414402461777784,0.6708129146152667,0.2665032557613766,0.9334471376318508,0.808026389133941,0.9586470751202246,0.6609215135474757,0.7969663613039554,0.5135787539498221
15,3.700559403075397,0.5238531409816044,0.8442663266895329,0.38898928902063445,0.616594109196807,0.36828766512325306,0.48550458555179615,0.01755396805871951,0.9503186829556813,0.7450877927659016,0.9899899374812432,0.6908241525775323,0.9295184010896347,0.6194152626316782,0.46640893427667196,0.027830542036299956,0.6847353790713251,0.470470820553235,0.979925595458655,0.8145580085605456,0.7401966782644509,0.39433093207354014,0.6190942666344302,0.10777953658218742,0.5534106132650822,0.045161310990081416,0.9649851714789649,0.9060630040375898,0.8836920867246711,0.4185382522947615,0.7417301560910727,0.20278380101784868,0.6234084708594924,0.09396142456331621,0.8095605280454818,0.46524916471097283,0.9316058403220534,0.5719725835454793,0.8366604505273285,0.4598373561547243,0.9760633923136309,0.809740232039101,0.7813834803149003,0.43092175496687013,0.4867216117216117,0.5936152963658958,0.3256739021016344,0.9340498259113816,0.697618920838686,0.8906914953821079,0.47274611475649364,0.6459688765611598,0.4094468527327393,0.7366802880382709,0.37223669445922514,0.9392613885532763,0.8364898559559959,0.977465379860155,0.7390487150201873,0.8168189358103211,0.5504658651235659
16,3.6463016949576392,0.654911838790932,0.8092543562588511,0.4318356123090224,0.6411211086818133,0.4658916715015951,0.650008888422611,0.049069430914030605,0.9705874583002498,0.824846493839433,0.9826155487351237,0.6140604308120031,0.9003153229536784,0.6434116824976527,0.49668020268896684,0.0407667089470707,0.6349637771063527,0.5401222091734993,0.9729213204794582,0.7661680491610499,0.7511796172612167,0.4783638853366917,0.6593371238963877,0.1742453333969992,0.616917668014517,0.05739644128044141,0.9487099367044531,0.8478807862188115,0.9183275094836942,0.5071783256465094,0.7483767408653469,0.18410504497962085,0.6810667014338846,0.1254701750850601,0.8291337814962185,0.4397898149386906,0.939616009995904,0.6728239060551663,0.9067938229586407,0.685057539013161,0.9885074866997169,0.8715809443932517,0.8023217191218542,0.4710032242749881,0.5808150183150184,0.6057375294965655,0.42696129771583835,0.9606893591313057,0.7753916131157582,0.8610741692321622,0.5330885170756848,0.58881239479514,0.46430976638989296,0.7400012119743061,0.44033349540355493,0.923207805003198,0.7675666433137273,0.9861705514825979,0.774228215626226,0.8093847173021823,0.5974113640915261
17,3.605076763013166,0.5813296694908786,0.719250661905055,0.328596687328717,0.570679647756364,0.35637397814338595,0.5853987987515409,0.034326228536681935,0.9521188536439673,0.7776840996645886,0.9760877734092268,0.6310420734813934,0.8996038313623477,0.5911010371246693,0.5133988738665254,0.03208497514739982,0.6717621501170128,0.544980532160306,0.933510204686597,0.6938813965109997,0.7596825627333792,0.38896796853409565,0.6448647319232661,0.16537322169507063,0.5485553197839623,0.03663298125865837,0.9597304868787911,0.8947541811447997,0.90873003213574,0.394693458318537,0.7289700043032626,0.14428599523861063,0.617461681801696,0.09262174845446194,0.8156117356141563,0.5045567885205833,0.9282535302173365,0.6243862147057576,0.8717003667082907,0.5421009118877438,0.9736360230862422,0.799931304598592,0.7789503635342381,0.42891878912275255,0.5196886446886447,0.550096027928454,0.3228182705820364,0.9360721156139208,0.7049566425744177,0.8616521131383557,0.49258132533380106,0.6354909598352497,0.47632277720011384,0.7437103106999038,0.30836464548320347,0.9322262060231099,0.8134625052313404,0.9680200463945021,0.6950996132043924,0.8038953970904993,0.5448008256584722
18,3.5701733177813417,0.6222425769025265,0.7892027982919048,0.30822668626593436,0.6520299277675492,0.44367807056860126,0.5555213132717264,0.031021569364194396,0.9253329559013678,0.7193213016681314,0.951589449234719,0.4657363871763599,0.9007500640167219,0.4921456665019428,0.46111583087166796,0.025560978084577076,0.7065496376088836,0.5311458284426828,0.9542452300845045,0.6991488807595185,0.7329909546805571,0.4231524479998937,0.6029116192985235,0.14699817599304674,0.5937658856221576,0.03459773626968925,0.9599315854295665,0.8951558244081969,0.8337321057523187,0.38230507479980924,0.7921722185275017,0.23084769189859425,0.6716537402106223,0.09790629920035712,0.8028461537168439,0.5206431260687658,0.8830107902804729,0.519780544440389,0.8407291663234612,0.5726367719745762,0.9229629945358077,0.6786163025114678,0.7766522210713439,0.4109312682198364,0.5462454212454212,0.6167773600036915,0.38449602137555505,0.919138619055947,0.6856315059975499,0.8708291832669323,0.4305742277274497,0.6647493773706926,0.4366676640866819,0.7111985282515784,0.3619483303174234,0.9310462521064696,0.7948974942345708,0.9070228540475276,0.5643161110968752,0.8029660248718341,0.522647336405158
19,3.5150341830738774,0.47813144034806504,0.8367120975599154,0.44757030437156553,0.695193007995469,0.544686023706783,0.5778267005300997,0.04332346087362807,0.9441814997673768,0.7321827487058096,0.982619331636912,0.7035284543593736,0.9208737077425534,0.774643808712489,0.525538470998361,0.0335240123748369,0.7052868720189296,0.6010378010524704,0.9486272002168192,0.7358655044863871,0.7356197394843251,0.3953285276920722,0.6448598130841122,0.1803925068416702,0.5471687988323174,0.04084797688301969,0.9539484041270707,0.8680759984309601,0.8936257735298767,0.46834960706364875,0.7493711368437525,0.23729165586405948,0.6115971799095021,0.10796039137390948,0.854151726502968,0.5802452869456538,0.9421315355049048,0.6947437486524386,0.9141675260534214,0.7031469753849691,0.984653256123053,0.8497745996106723,0.798407688923087,0.4871259696693208,0.46703296703296704,0.6492500354038344,0.464473030604862,0.9389052290179495,0.6701794977230814,0.8725297672944586,0.6299176302293397,0.6649832933535755,0.5101154142370208,0.7200756683580949,0.31996251770714196,0.9160985572034583,0.7595342532459114,0.97549919574593,0.7439108027224187,0.8196202494824716,0.5854418780671108
20,3.4894461150060545,0.5852988321502175,0.6529665298789917,0.2616686702199572,0.6570787597343507,0.4007976599738555,0.49439155104431676,0.021439147976989828,0.9128732980704738,0.7146614873532482,0.8375140282607982,0.30132484155102507,0.7098324556746166,0.2710910168668472,0.5029207439960044,0.03757425057958883,0.6196215044137275,0.4264583158740444,0.9410412824514116,0.7758312266159652,0.782972266495894,0.47084404270164526,0.5781062469257255,0.10904252374660059,0.55561228383629,0.03765610778494685,0.9515615241427855,0.8413839790085508,0.8299715932251933,0.45077001250573046,0.7561504870510914,0.24484869920864005,0.6474468454503992,0.10980008583890245,0.8016687595503579,0.5356433572958492,0.8923384043790005,0.5464212782837908,0.8589408621104342,0.5543850878993304,0.9701654025744496,0.7832995533919881,0.7476587414633156,0.3947470672338748,0.519459706959707,0.6295267183589168,0.3284437739098834,0.8954275902637562,0.655776927282448,0.649477374592539,0.2522977361256999,0.5711804042618576,0.3546371989464572,0.7578309547384765,0.4425959844801601,0.9219808921785295,0.7827914380897465,0.9639346838185735,0.6991450375111461,0.7699083740303784,0.5022411566207916
21,3.462396005511912,0.6559804595069079,0.7627897079649544,0.34092085311063375,0.6738295891551596,0.43323809285313586,0.5265537982706918,0.03430378154016775,0.9165989404997952,0.6977442423475252,0.9590828732904435,0.5237475873843745,0.8043732737279818,0.5195020101402829,0.49845241351962516,0.04143564658260884,0.6449512568135856,0.4656889124508612,0.954568129701895,0.7315502522322873,0.7617738539202931,0.4578290406464173,0.6279318365611478,0.15418336668032068,0.6030548434708305,0.04610402205641924,0.9704492782454263,0.919927644917895,0.9190623141277448,0.5493199601885079,0.8005107679367811,0.2836886498072831,0.6671253977487019,0.12166325024643117,0.8498338300780167,0.5819024852206455,0.925463903450159,0.6614640406232727,0.8691245127853687,0.6258309547316331,0.985054996115873,0.8500232359653553,0.7860292758692238,0.45200340148630297,0.5483058608058609,0.6347195459398565,0.3669486565881195,0.9096249542918011,0.6429718148195988,0.7375275177698297,0.42108888686316365,0.5944200718259665,0.37456590273225876,0.7271943023487147,0.3391593463536025,0.928772626494445,0.8057154463904326,0.9809501362476689,0.7106274551755022,0.7876013078454689,0.5230110727032397
22,3.387658673582637,0.6578887107854362,0.7595725415343159,0.3997330158019707,0.5748605054902742,0.37039072979940946,0.5647732869386816,0.051539170941227536,0.9766244740291096,0.8420496685515262,0.9423702653831701,0.5244459061592488,0.8341469468382577,0.5808963170718676,0.4666545779446496,0.04849063657244717,0.6657137945406983,0.5421343685905813,0.9387606583340921,0.5949481489227945,0.7290350409414084,0.44881862064370015,0.5413320883390165,0.11725922463531882,0.5964624380418146,0.06216328415109499,0.9768485154693006,0.9356921927327366,0.9041797729868374,0.4987273356521217,0.782448556450982,0.31680788729484965,0.628328108934068,0.1371915416839387,0.8573559398392597,0.5834991236018209,0.9324337295561836,0.6659946417125496,0.8930695263104138,0.6053627999597725,0.9844236904128699,0.8339176522929835,0.7774697229157701,0.45800311333859794,0.5407509157509157,0.5446752633011013,0.3004083790042856,0.9658253708326047,0.749805988753588,0.7738746717674756,0.455936806243095,0.6225421622092677,0.44837599614585316,0.7049831581306326,0.34802377410074053,0.9318857857548817,0.80392365818431,0.9824046162943114,0.7346898937238253,0.789455861184325,0.5487377851650995
23,3.340692342051058,0.6433860010686208,0.8235772210491241,0.44198123799729994,0.6934586149992418,0.5298023379126395,0.6250448063926701,0.06438213716310826,0.9487426965813909,0.7832598298966759,0.9641030361569753,0.5875404891582493,0.8332496443610413,0.6209462304592172,0.5335418115012687,0.05173489855771911,0.7408188790445654,0.651489420568361,0.9732088599420263,0.8250003242297262,0.7800525054665916,0.49071503158450314,0.630137310645535,0.16791802747929915,0.6942616533176335,0.07472450044821989,0.9387123866219522,0.7945144599087268,0.9262930328609741,0.5558739741336759,0.7912968957828026,0.30047640342456644,0.7581456895500067,0.15257435699520852,0.8833515725205212,0.6506691801697426,0.9487776118229699,0.7233175275861865,0.906882122888462,0.6499810295530836,0.9869399082937815,0.8868368243403142,0.8190298129899768,0.5001869110783261,0.5540293040293041,0.6561285230793221,0.45010469193597313,0.9394068268175964,0.7293047768456458,0.7794525024900398,0.5261569058387716,0.6887630316428699,0.5591769422246389,0.7341179914155631,0.35907311710533174,0.8941996713130957,0.6535222259883772,0.9769298996439779,0.76389985635909,0.8098569209146378,0.5773197880425469
24,3.314101257421399,0.7341424318754294,0.8404401351698858,0.45762919991569706,0.6221701786798988,0.451515842729326,0.6908318835004648,0.06854725817657176,0.9465014038120872,0.7874513168126539,0.9923325624620134,0.7884089066865722,0.9068123364753095,0.6675743918215599,0.56064794713422,0.05639512692075553,0.8691561614598791,0.7945510366658006,0.9462580698437164,0.6006181496340812,0.8031194091676853,0.48532814729176865,0.7109226575070656,0.26540121183131354,0.7193069337291026,0.07366170845636513,0.9691524312032369,0.9025991041871539,0.9328006442744434,0.5454547011015066,0.8403597136374306,0.3174111325870662,0.7231527641089196,0.14744183672181205,0.8773423907287775,0.622965789552325,0.9369364374697454,0.652569558611857,0.8964390088003401,0.6241377738323861,0.9800254419320019,0.8285157288389925,0.8382354255548112,0.5069088961187782,0.5982142857142857,0.5880775797461426,0.3849580219327877,0.9323001955515986,0.7272804864431295,0.8422354615628395,0.5205633574188199,0.8103279639677654,0.6509252948195661,0.7537399697692447,0.36043011917952716,0.925949619836461,0.7782176227248321,0.9721488262852559,0.734885881243868,0.832111373817044,0.5938943976803615
25,3.2548857111756506,0.6517823066941455,0.7101482450008512,0.2795305710467721,0.5357394684489445,0.2962519977670587,0.4849652695814864,0.02889319195117527,0.8832285916822116,0.6064092336439729,0.8611831403633099,0.20457947981223532,0.8567470718973599,0.501631542458984,0.5278214198768707,0.04362179130893332,0.6498431233265055,0.40405731939240885,0.8978811432975567,0.567002561067735,0.7716485954698412,0.4681607999772596,0.6406824680900731,0.18547321244226714,0.6005911666060203,0.059656551615916265,0.9747656832869848,0.9318657703744281,0.8829051758178732,0.46866067700276587,0.7610664756278852,0.30919581048249534,0.6069007283030693,0.1450417442374418,0.8312453246323165,0.5615704147346384,0.891323712551562,0.5133640353212081,0.8356052993136986,0.49137778649156033,0.969675054059603,0.7913487457189927,0.7586983578617013,0.3928846618424125,0.5038919413919414,0.510150159993508,0.2225823173503012,0.8684756514411993,0.5536138330640972,0.7950980170228179,0.36973617215834453,0.6097034426928775,0.3338693775606608,0.7229335266394239,0.3346640918994516,0.9233136852511106,0.8039739448164591,0.9617514131302229,0.6444156901525074,0.7702036994530229,0.46612220385740316
26,3.2253097278654517,0.5544614914891993,0.8206769722235302,0.44683517694940517,0.6193275580674562,0.3840169661345807,0.5176402403662612,0.02852449783426421,0.9177216966386296,0.7333850199900712,0.9265721109348557,0.39255573329009474,0.7749428464860204,0.3774320689885799,0.44909999673729994,0.021757851064073228,0.5961234448969266,0.4136397391042138,0.9295613011690025,0.5380005365358105,0.666835376138402,0.3809901719144738,0.5803624934346003,0.09689347665683137,0.6084125144290853,0.052837226375385835,0.9723963245133528,0.9284489233964284,0.9075319425569216,0.4991335431639898,0.7923329796181833,0.32499583182792835,0.6620004116824428,0.1575609796828664,0.8348343259821845,0.5527434251043648,0.9188401689704964,0.5769789204548087,0.8322141536880047,0.5070402182270511,0.967976003659604,0.7836663634654754,0.764770143109663,0.4098718335080349,0.5091575091575091,0.5843979677403444,0.30389495837059954,0.902767134612633,0.6677135331348178,0.7162875486689605,0.3019057713093669,0.5561643454709738,0.3286128807146693,0.6365529163989271,0.2661493295441667,0.9210532946700749,0.7851022730929524,0.9423562783504729,0.6240810305857513,0.7513684979874837,0.46820853953604624
27,3.1769561303516314,0.7042210518281047,0.7738854460570017,0.43490383613590317,0.6830950768766384,0.4705456236157033,0.5268295579394013,0.06552615641181067,0.8857846047384711,0.6784938550220772,0.9518033092824844,0.5171692417254256,0.8131058725470656,0.5155656759137224,0.5140660019124442,0.05893495622066085,0.7150565602603961,0.5692212625174732,0.9432668548306842,0.6858367961776106,0.7638540155195256,0.47083767222514383,0.6601522339033074,0.23839800521424903,0.6874927599041104,0.11294679509351438,0.9884344749726917,0.9665062217026665,0.9173995217566686,0.5746248507422248,0.8367474180424067,0.4203714611830916,0.6739497247613508,0.20871104557907383,0.8553040733064032,0.6113252917083389,0.9421507743101958,0.7238501930592561,0.8501018085011746,0.5350307515174415,0.969773628038714,0.7983335711981164,0.7976126858730568,0.48285666314817516,0.548992673992674,0.6321728566359515,0.3727885713513054,0.8747865625844607,0.6189318237183098,0.7392086483611011,0.3876406002166654,0.6604354047893152,0.44412401404887536,0.7113460232378922,0.30333767052241734,0.9251845332373624,0.7898511661511338,0.9440712622860663,0.6282869983570932,0.7838864701617355,0.5064229777665429
28,3.1097429821704345,0.7287993282955499,0.8089332734509973,0.4931466474092914,0.6908160277716201,0.5266548101687786,0.6749729704525519,0.117020908144125,0.903319964218569,0.7319949488198371,0.9666406066765695,0.5780649179265022,0.8705213508160806,0.6058858178600834,0.4984271589662763,0.052801553306788304,0.7042351025544965,0.6309911298444433,0.9361355373790715,0.5538274937102995,0.7537788818751986,0.47914119352470114,0.6619975489174386,0.2716509945046751,0.6808921774256195,0.091769095572451,0.976264336387268,0.9237799903970905,0.9239411617498914,0.6037418163731081,0.8362711251075817,0.43334348791795185,0.7488865338081053,0.2287041846447169,0.8689883386874173,0.6715906202189911,0.9494395922200755,0.741753424849435,0.8631311550487462,0.5927485149529851,0.9655044502369498,0.7856488716805597,0.8141548646875263,0.5057130210913406,0.5480769230769231,0.6256000751038645,0.40275159097368396,0.8963973990047537,0.6912610479910406,0.7950782098877219,0.45998255211026257,0.6279560559013333,0.4884362859651208,0.7088554732073643,0.3241919786690442,0.9113560892723201,0.7408524741129543,0.9527061392083161,0.6660497485405755,0.7882784916550962,0.5390750969089545
29,3.037553526137532,0.6698725288145944,0.8150155561270133,0.4525610591196639,0.6771461835621178,0.5031595607201427,0.6547529018514147,0.11800542683838003,0.893587301261156,0.7228020575859274,0.983979158733081,0.7147166361072113,0.9185243196877146,0.6753786510917155,0.5992143167278633,0.09433695264392242,0.6640274473361132,0.5492567301080068,0.9542928710116604,0.5987509510187656,0.8624413613568813,0.6238512162441671,0.7771898421802962,0.3455578966550509,0.6536353458414934,0.1522453671451196,0.9855599975917005,0.9558346862810737,0.9349674849831169,0.6058252485255988,0.7946974512948908,0.4357366782157219,0.6563307355469705,0.24829806190057588,0.8949049629080492,0.7035497647792545,0.9414741062230293,0.7559651874459974,0.884652368447931,0.6195994715920777,0.9863670746100566,0.8935106405994949,0.8266380393641274,0.5384471122308934,0.5485347985347986,0.6093896935857799,0.3675889589972785,0.8837596782142799,0.6701249542285516,0.8622887710521551,0.5305857281685225,0.6044793190751605,0.41377453489363747,0.7660689499042999,0.40332166793896307,0.9198618873612326,0.778706249697601,0.9758051844408884,0.7508497683001478,0.803093354804828,0.5592788374606716
