epoch,train_loss,train_accuracy,train_1st degree av block_rocauc,train_1st degree av block_prauc,train_abnormal QRS_rocauc,train_abnormal QRS_prauc,train_anterior myocardial infarction_rocauc,train_anterior myocardial infarction_prauc,train_atrial fibrillation_rocauc,train_atrial fibrillation_prauc,train_complete right bundle branch block_rocauc,train_complete right bundle branch block_prauc,train_incomplete right bundle branch block_rocauc,train_incomplete right bundle branch block_prauc,train_left anterior fascicular block_rocauc,train_left anterior fascicular block_prauc,train_left atrial enlargement_rocauc,train_left atrial enlargement_prauc,train_left axis deviation_rocauc,train_left axis deviation_prauc,train_left bundle branch block_rocauc,train_left bundle branch block_prauc,train_left ventricular hypertrophy_rocauc,train_left ventricular hypertrophy_prauc,train_myocardial infarction_rocauc,train_myocardial infarction_prauc,train_myocardial ischemia_rocauc,train_myocardial ischemia_prauc,train_nonspecific intraventricular conduction disorder_rocauc,train_nonspecific intraventricular conduction disorder_prauc,train_nonspecific st t abnormality_rocauc,train_nonspecific st t abnormality_prauc,train_premature atrial contraction_rocauc,train_premature atrial contraction_prauc,train_prolonged pr interval_rocauc,train_prolonged pr interval_prauc,train_qwave abnormal_rocauc,train_qwave abnormal_prauc,train_right axis deviation_rocauc,train_right axis deviation_prauc,train_s t changes_rocauc,train_s t changes_prauc,train_sinus arrhythmia_rocauc,train_sinus arrhythmia_prauc,train_sinus bradycardia_rocauc,train_sinus bradycardia_prauc,train_sinus rhythm_rocauc,train_sinus rhythm_prauc,train_sinus tachycardia_rocauc,train_sinus tachycardia_prauc,train_st depression_rocauc,train_st depression_prauc,train_t wave abnormal_rocauc,train_t wave abnormal_prauc,train_ventricular ectopics_rocauc,train_ventricular ectopics_prauc,train_mean_rocaucs,train_mean_praucs,valid_accuracy,valid_abnormal QRS_rocauc,valid_abnormal QRS_prauc,valid_atrial fibrillation_rocauc,valid_atrial fibrillation_prauc,valid_incomplete right bundle branch block_rocauc,valid_incomplete right bundle branch block_prauc,valid_left anterior fascicular block_rocauc,valid_left anterior fascicular block_prauc,valid_left axis deviation_rocauc,valid_left axis deviation_prauc,valid_left ventricular hypertrophy_rocauc,valid_left ventricular hypertrophy_prauc,valid_myocardial infarction_rocauc,valid_myocardial infarction_prauc,valid_myocardial ischemia_rocauc,valid_myocardial ischemia_prauc,valid_sinus rhythm_rocauc,valid_sinus rhythm_prauc,valid_t wave abnormal_rocauc,valid_t wave abnormal_prauc,valid_ventricular ectopics_rocauc,valid_ventricular ectopics_prauc,valid_mean_rocaucs,valid_mean_praucs
0,5.569389055343214,0.5191206778108541,0.44177243428407065,0.034073258117958125,0.5495541666157027,0.17819259862738018,0.6272731004474364,0.021738878355283965,0.7034536725958418,0.11257679107278709,0.6357748151324047,0.10636100236648216,0.5840397946165098,0.06504074067029536,0.8871055230089939,0.25322461695214454,0.7410881724304538,0.04075139967089287,0.6525771283296455,0.3018968076641295,0.8618698727015558,0.0961103803049031,0.6797667969349337,0.1598766946621261,0.7719064616874962,0.46515585754201527,0.738111669763447,0.17652452661400048,0.6235770696943439,0.051446694135002656,0.6598843727985023,0.028316802686222303,0.4730201644883016,0.01886070961535692,0.6013144804276619,0.023524844431163996,0.5544207233437515,0.03280320668317792,0.6092160604977487,0.022127455434459188,0.6018435688477339,0.04806853539532974,0.5281020215012012,0.03692769531998711,0.634718272730545,0.0431242152454398,0.759539172016916,0.9405173170317629,0.356568578717065,0.030876514702306207,0.6677316270795857,0.07504672861795539,0.6262736577962351,0.16788141410229188,0.67788274243402,0.08487270156685173,0.6388291155897077,0.13392290324398914,0.5885989010989011,0.5506800003587261,0.1865104539982949,0.7150405308113099,0.12555375854487508,0.5868493695064161,0.072755538756992,0.8925405914189349,0.2848242918259555,0.6629169131019584,0.30985165130343073,0.6901471502125942,0.1647149270372585,0.7792539642628739,0.48729573698669415,0.7405145363729507,0.1893592131619256,0.768151491365777,0.9446597024927447,0.6376048847488299,0.1515220116067327,0.67111268236108,0.08706068811314228,0.6995283740474046,0.2731007248934587
1,5.152163533634488,0.3209678650484696,0.41182739640057786,0.031553818968917687,0.35043183526249194,0.1200161523336006,0.6601601755690258,0.02871141454532737,0.42108990684982256,0.05823202624633466,0.6368645459480096,0.11748987411732195,0.5923306407373462,0.07625583193341443,0.8793920866544073,0.3642415723037244,0.5646503963226999,0.022715030290052632,0.40337164952126886,0.23184079311556854,0.8902914767667243,0.11924788849908374,0.4896831614126608,0.10702124460052259,0.7309927321206782,0.4177986011791929,0.7918940273327036,0.20670965324575696,0.3921767250610357,0.02889026279870465,0.33653022480494527,0.01269812013734888,0.4676168129139126,0.017601560778642972,0.420682212769004,0.013823837439785295,0.5110185638949307,0.030211296379417385,0.2958030511139136,0.010315012811944732,0.6987899990474701,0.0635615813798088,0.5155261293291821,0.03581593713155453,0.5524826216484608,0.030551267331430917,0.8093704830071984,0.9546664058276563,0.3116878900616196,0.026890766669008217,0.45961508181423705,0.042114439798532494,0.703794924123088,0.20020743481128211,0.811108992644848,0.14827870593907222,0.5595993978937875,0.1302763159486299,0.32303113553113555,0.3344539623828925,0.12018175395531902,0.3999626065692843,0.056715529577140426,0.5904868324908236,0.07761442363020263,0.88026802392635,0.38802267977009075,0.3808164561613489,0.21820855957370433,0.4839526612181616,0.1116988979085086,0.7293921190290084,0.4443632779832756,0.8090881037132561,0.24715816056603304,0.8096840659340658,0.9543262888452725,0.7253630688512639,0.2023352597294456,0.7867580930677356,0.14524410668409804,0.6300205448494719,0.2696244489293719
2,4.986588842113021,0.4617968094038623,0.47913719446423786,0.032473444092152914,0.44953466437804174,0.13811255354135193,0.6952057554044336,0.02835476847009986,0.5283808030157532,0.09280641515890097,0.7925850078939017,0.18793309407270334,0.7604875305289045,0.14374264188784008,0.951390999535735,0.5679652820602292,0.655857531706131,0.02843213962610636,0.7601616872042369,0.45135275539544034,0.9059790455235999,0.15254774370792196,0.6894021121752882,0.23629181222303206,0.801104141130309,0.5491629110770302,0.8742444167789835,0.4367388960477236,0.4380987015297634,0.03256829956831301,0.5323349352242923,0.020164705324156033,0.4581049948308696,0.01857499618691247,0.3968328073074835,0.013039426550490183,0.6270907978392493,0.03968687334189207,0.6568083196393634,0.0224243715107168,0.7497369526301177,0.09841984891969038,0.5511836153914776,0.0444207303897629,0.6166139793301898,0.05116372496894951,0.8069501428439776,0.9537534785182304,0.38095258878251925,0.031126761090977,0.6413790406838356,0.09633802196270233,0.697881875642993,0.20011620414741293,0.8684294381155264,0.23367659108061212,0.6579951510937486,0.18153290707116113,0.5831043956043956,0.43083273968067914,0.14017505051303414,0.5336409321727816,0.09975936190055376,0.7357193523713481,0.13242376102484937,0.9456268174991211,0.5549697412972403,0.764564471555243,0.46074781927274105,0.6920533973429461,0.2561401075299548,0.7847606137296594,0.5482412675024373,0.8751272457073206,0.48512999980547694,0.8099259600289821,0.9554762155307968,0.7111421201291727,0.2033567817517045,0.8451858709585529,0.20273140462621678,0.738961774652346,0.3671955918868187
3,4.7071811327378486,0.5184337073505839,0.391699788846106,0.028327217352904683,0.2711577533965831,0.09783136380247347,0.5831630550956522,0.021652642732896844,0.5680513542975777,0.09473336901933271,0.8580614919172216,0.3309118239709392,0.8085114055649659,0.32695088288179336,0.9295354789665715,0.4050316930944292,0.624416917747685,0.029635040000869535,0.7620666526826091,0.5130133755866257,0.9372626119754833,0.24889296740079672,0.7168051965678811,0.2917826380486562,0.6902845404275826,0.5061811257866827,0.7841121145777538,0.27868526140643174,0.4069613621911562,0.0316780039180275,0.5202211998637346,0.020791036558415,0.5038090212874485,0.0201701219811229,0.39464728922671216,0.013074547054195378,0.45151352979959397,0.02411247047623909,0.6449428974567056,0.025557186452064243,0.7539461342714452,0.12000521826667102,0.5570496534671909,0.045055073746400894,0.6146916149850831,0.048341727260669015,0.8103799547404746,0.9560740996308763,0.4958964376732947,0.04676478246532917,0.5900470052703198,0.07310397588332851,0.7599172055773888,0.35163348447913095,0.8659308955795758,0.29302265602691097,0.6405586134612518,0.19418569575126715,0.5782967032967034,0.2722231775253438,0.10393305297523929,0.5958320277524635,0.10777785448053961,0.7705417843545294,0.26951313552393763,0.9185716817295765,0.3979498292330104,0.7685745132830082,0.5245645552922334,0.707039633710116,0.27053632573456,0.6514523331893936,0.48754558348989163,0.7870155278405879,0.3156274321027603,0.8113214738558145,0.9575938794645237,0.7452431633695914,0.32841288051203205,0.8601420229108591,0.2877512363105807,0.7170870308655712,0.36829143319266444
4,4.509571062900685,0.4386688039080986,0.36439066085285254,0.028130566730904794,0.29419426765586726,0.10071870287144102,0.6349605167336377,0.02990027054670113,0.6035405764185706,0.15051769378124893,0.8507420619823926,0.34137155248954715,0.8177156504974448,0.33544804165151343,0.8452911885180193,0.1964277648928698,0.5396066001918778,0.024937525238362523,0.713762642602665,0.43447373995209726,0.8794141128398554,0.1295009446095157,0.7245675366462486,0.33279028567488,0.7655996374544196,0.531467994013498,0.8446687068459994,0.36906657503324414,0.38271578295350084,0.029304944581635847,0.45041210381311786,0.018530254129500913,0.5310121801498885,0.03426520947111626,0.4387126437124498,0.01559831867844905,0.4190650726682147,0.02208036267006889,0.5600370992312644,0.022732224645019387,0.7380391411774557,0.12482155281314367,0.5587801812696256,0.044510390170032776,0.6909434597476514,0.12077842922122385,0.8463072937466081,0.9644263669992317,0.44557973298246356,0.053229029377750876,0.4382125700918831,0.0497902718148421,0.7354134598158246,0.30973878355734497,0.8171136986954322,0.3089219895708478,0.6270666140479716,0.18975851056244564,0.4961080586080586,0.28872769610910887,0.10681454362382543,0.6091238376343752,0.1709991199435744,0.7660187246552689,0.30487121584460203,0.8322228613427923,0.20128368065888005,0.7106078290013218,0.44096465569246984,0.7043360248407413,0.2980568258427025,0.7358422111321858,0.5243677965300846,0.8485546985408424,0.40137921270592647,0.8473999215070643,0.9658252293058095,0.7497140246569036,0.29582622522296803,0.8014731316255315,0.2818433347584596,0.7176382691860124,0.362930167284482
5,4.369369315132914,0.5391191512098313,0.43909068177212374,0.035125010417074776,0.28736655916652737,0.1009414894565185,0.6226539231649859,0.025918617323772278,0.8368119323971581,0.23456231181431023,0.9289673397786219,0.6973322235851777,0.8822210401043004,0.45289219851987345,0.9037546635613437,0.3847955825892217,0.5154406164781801,0.022273017137427645,0.5500093392909227,0.31300960316766424,0.9354185132798994,0.2467433763810433,0.6783323522642779,0.2883256255147845,0.7623501949627928,0.5395445067851845,0.8440737844079895,0.32275768283578615,0.40544189502192673,0.031568279657919945,0.6447939646305122,0.03860034237259952,0.616186372363467,0.038320342146062454,0.5293228958468817,0.019383865172601614,0.5538127913540215,0.0324302339976906,0.5645461807124461,0.029082166556881492,0.814510587826127,0.15640905797140173,0.6055807385385431,0.051273725909908446,0.7668955901440451,0.09957096853516077,0.8467540728453087,0.9648606150378571,0.7295216214006062,0.22982443875239633,0.6548945699065161,0.0786466379960879,0.8281204443744072,0.3893445193565483,0.9037435514090653,0.41050374488528346,0.6907635635927036,0.23089037718060143,0.6195054945054945,0.2799814086314951,0.10560681991259586,0.848347712662181,0.3057501940748687,0.8364177879951971,0.39369413046339624,0.8800595834676939,0.370881801251549,0.542459780010569,0.3222668490760613,0.6415636084849752,0.2445488480610868,0.7306908558216314,0.5314188128351703,0.8438645487386942,0.35562386317504163,0.84457077949523,0.9651518457568569,0.8174705044468944,0.3718940872240519,0.8974342279284595,0.37364799540072324,0.74207825433482,0.39458956793012745
6,4.2021139562698675,0.6377375772841768,0.4386875772215285,0.03478220230108037,0.35358492352450055,0.1130683665170385,0.5990671565206683,0.02148786587017916,0.8251039828442208,0.3177670802297922,0.9270065288236443,0.546901501467462,0.9080667587851724,0.46820526374881116,0.9277549256688273,0.32966435900012175,0.6090909491775902,0.035945391992774016,0.6711438204073178,0.4087553005308512,0.9570992718319452,0.6288298439003606,0.7223091722334344,0.40282305086167397,0.7144679785735962,0.5641783512868526,0.7980883337095777,0.31174256973147735,0.43096576400855324,0.0323394995351664,0.6694256013705925,0.04763291998394897,0.6262338086504373,0.04095081817534996,0.48237117338567737,0.016771093337237523,0.5890909801026069,0.03835194163449476,0.7416485516612976,0.03717209800993797,0.7918630058789055,0.14733257825894566,0.5921655591812823,0.05064637022122419,0.7736029033439696,0.10896347787396027,0.8361281397515846,0.9621844420056955,0.7182146008504058,0.18477656066655374,0.555592381733771,0.06881762694980824,0.8492021944296814,0.40046540904337635,0.9010053637426944,0.49047319453060123,0.7040363484227216,0.2522603399135102,0.6712454212454212,0.3374423065150503,0.1159674026926642,0.8276864469144839,0.39299118814973805,0.8674489259602688,0.38896009918001706,0.9123954529476531,0.32039535075188064,0.6563408821275211,0.40240493515118336,0.6890991280541063,0.3355501826756123,0.6805235942650056,0.5445359257250771,0.786182496290277,0.30396294110879113,0.8349236958096848,0.9631671095572264,0.826253039505134,0.3591158707980483,0.8952011312999777,0.43375158162520916,0.7557724636081058,0.414618417037768
7,4.093079942208685,0.6188077246011755,0.46201346351221484,0.04927600430391758,0.34226325166856253,0.10987254122143775,0.6740657882134012,0.028944901332578182,0.8784620001571617,0.36826400667076536,0.9382157098372172,0.6516724458003151,0.8914302818797376,0.45428019443656814,0.9307703816452262,0.3841211445297011,0.6729684170210567,0.0333280587434833,0.7829702605564816,0.47282125661329305,0.9761347372832522,0.7794050963847728,0.7858661266115105,0.3615260221092117,0.7806594542819969,0.5681448390782852,0.843104142650479,0.34700218348583,0.42644788821492463,0.03341528496336525,0.6265767270490258,0.028841617358235982,0.6315207002691592,0.048465516302320905,0.5084422674200073,0.01781830097148248,0.5604799338272421,0.03812669055734563,0.7953772454551381,0.044576233262219433,0.8066644203686798,0.13695108688715596,0.5760893899812592,0.05011391572850674,0.7815597851288316,0.10823235502501255,0.853692440020889,0.9665517033126303,0.7809658811606268,0.22486385380718799,0.5573953650886603,0.06256612734023079,0.8602389342300234,0.44081596557949687,0.8816737416310396,0.43379274251731614,0.726149953154215,0.2682885217897284,0.6717032967032966,0.33500920795233313,0.11398105866206204,0.8811566609340703,0.4376735415968877,0.8452427752827713,0.36485796089500194,0.9124194199690316,0.35798168274262687,0.7785167920132801,0.4610554033571882,0.7598384882000072,0.30050238168623333,0.7618740673528399,0.5546625281952523,0.8396008514697568,0.34790275717281366,0.8484980678661997,0.9657403235386443,0.8450117201069219,0.4043836277300621,0.8677101349014181,0.4362032656529011,0.7886252896407846,0.4313585937481521
8,4.007654553451172,0.5826272803602779,0.4892108041498604,0.04125337003776376,0.36337971287088794,0.11593807687516083,0.6540886921567107,0.0277980594352221,0.845236580228373,0.269673053551701,0.9245289071793912,0.6059542117667632,0.8827584716355111,0.493806832214435,0.8818163194671967,0.2864679101352707,0.4990121066931071,0.025079735861228972,0.6780004435351922,0.4571895411724334,0.9363796951123684,0.6394902556965164,0.5970154662217186,0.2613636246418094,0.768250608004541,0.5251179457403358,0.8593398648459112,0.4702703505205921,0.3727855003607777,0.029811029056238232,0.5732727856034873,0.027204317303065065,0.5831689990104156,0.0459721612837725,0.47925920594956123,0.018248365872272868,0.49610830535063843,0.02592446512975033,0.5972770168351531,0.020635125261048208,0.7762030434173921,0.13271719424458667,0.6116566411354285,0.06676727588463488,0.8350889191438184,0.2536463798396074,0.8868383661516092,0.9744429085519849,0.688774127274214,0.16625017360389494,0.46021917010367913,0.04882660347561623,0.8473527115502953,0.4930810708170714,0.801612388352754,0.3097982888198939,0.6810605500866665,0.2530640121034322,0.6112637362637363,0.3516275830714048,0.11945995264734557,0.8426717247460794,0.2985413476545257,0.8118892160172292,0.42519082472292824,0.8543829145641052,0.29400775643626537,0.6632073859427476,0.4431236374119769,0.546364436224942,0.18932438654498251,0.726630936828699,0.4780782111403773,0.850375609454494,0.4791006568339832,0.8812081119430021,0.9736382685324496,0.8312061975428312,0.4252816515389254,0.7751724418580992,0.2925242150447969,0.7395215052903303,0.4016609916825961
9,3.881615245190297,0.5137775742309747,0.45111158143153185,0.06348181877953596,0.39141305829968576,0.13968750230590643,0.6328413508537477,0.030800021667942417,0.8084785331240033,0.3843353605476066,0.9380796297750054,0.7075542482977383,0.8327184607700868,0.336056567199975,0.9178789718694539,0.5054502517852987,0.5464665766701586,0.024935294923520233,0.6353925409763823,0.4357034410663542,0.9376845303577976,0.6311650743147235,0.7016621866971954,0.3750347632081175,0.7224294836511691,0.5914548370082287,0.8301778121815003,0.34265847030667196,0.4498496759590263,0.03631613914933063,0.6226802623440968,0.03183889586570107,0.575194419811465,0.06224384636356618,0.4924567743975562,0.01976569983545554,0.5825771573797596,0.03949430940264818,0.5286621721970823,0.026203025927913695,0.7969980227380044,0.13561339654336774,0.5606998093103968,0.056611308301516894,0.8102362354774575,0.1517547468324708,0.8985467391638251,0.9758694820929087,0.7503294763997501,0.3563453522610499,0.5609355712883425,0.06600196162402198,0.8425703719637401,0.4023032177133893,0.8947841005338535,0.5418364002303571,0.6930687224304474,0.2766857567983451,0.5258699633699634,0.36542488958450553,0.1274377517118965,0.7817300002950014,0.3707411056855662,0.7972165129068511,0.26183626592231235,0.8926974664679582,0.4473327082661623,0.6160374838285954,0.40368624617309223,0.6672644432722636,0.2883441597684792,0.6819950586781964,0.5558962069686246,0.8229170346947429,0.34008009769775316,0.8862656231131507,0.9733696063082273,0.8015422844059553,0.33654773608846433,0.8755671760229515,0.515193721128284,0.7444234521154702,0.4200423277926239
10,3.8040205566093817,0.5478207770399206,0.6056369264360753,0.08995459385784621,0.4429792850447962,0.16091006138912523,0.6527129732252676,0.03412707021951143,0.9081431242968065,0.46413858063628977,0.9747414856235712,0.8403863615573884,0.930005909519335,0.6083446774998014,0.9475058311944154,0.6468194414331349,0.5774626150179941,0.027248051071580938,0.6427449448086199,0.4134113145849015,0.9826991461050868,0.8579789213479081,0.6807210648557952,0.32503999511881176,0.7151313160202959,0.6111322440499445,0.7565625805641528,0.3134671529654461,0.426287597484111,0.03630837883773205,0.6071952796584101,0.02923181820842808,0.585750636463417,0.04469038842181634,0.5178635619208992,0.024197178118025305,0.5700560831790449,0.04142434724726639,0.6566601400194375,0.03399190466364757,0.79010862229279,0.14279852184426212,0.5805187618540129,0.057442253512694705,0.824292426363007,0.15130544786051564,0.8729159422070675,0.9710101741192751,0.8429202313363833,0.47971609273005344,0.5004592045229539,0.05688183716429189,0.8339470614211424,0.42196058124059815,0.9157857908254929,0.6119866320583754,0.716363279342977,0.3146631119169879,0.6254578754578755,0.41891913495547706,0.1501839013011477,0.893333843606162,0.47536924809982445,0.8866382791435029,0.4764985007379024,0.9190960511064049,0.5779091002267404,0.6330651417425804,0.3851251593604289,0.6301448117831219,0.2291329744799308,0.6523490409790813,0.5406804021740756,0.7384308534129451,0.2982371967625038,0.8630947349353943,0.9678575981503699,0.8001788344514926,0.3247088876381041,0.8999359065660162,0.5608975618639759,0.7577442393347436,0.4533273209813639
11,3.686629755334466,0.612243340203038,0.5103244775085147,0.055741574278863074,0.4199532807022074,0.1390891063891531,0.6468961469987701,0.03611272791476282,0.8109884245530237,0.30320964213294943,0.9452547183926904,0.7399432783450152,0.8912225817808604,0.5700102878759916,0.9324393127067756,0.5522011893842217,0.49945699727049786,0.021624608289715117,0.6568691945014098,0.4459423933871912,0.9842338519566242,0.870919180740525,0.5957103247313986,0.2902157098643367,0.6639540759736604,0.4760295950385096,0.671417441529627,0.1736777919620424,0.40113752055114976,0.034065021781041455,0.45024954440368975,0.017412380938912047,0.5812171561780054,0.05434895679793469,0.5113765519751325,0.02560172210790743,0.5137525142579231,0.028366888876468516,0.6105779642105942,0.03191752145509788,0.7146882634432968,0.10226890717656956,0.5971168579658113,0.06994957255712968,0.8160328658876139,0.2230395735265851,0.8711564525542961,0.9705242616842875,0.6806945665719968,0.33778923019841717,0.42358490491517353,0.043378028866288165,0.8185676588855408,0.4835168262459033,0.9005815304472489,0.5242798153398479,0.6710909326242048,0.2822657701168766,0.6272893772893773,0.39464273807810946,0.13628929020336927,0.7746834514535201,0.3017263082004106,0.84178585010875,0.483328546314252,0.9083965917443053,0.4889258453756769,0.6402024327392055,0.41169014129467646,0.5408611186448642,0.2031290593774741,0.6053572892695698,0.40647475390998755,0.6688619541407576,0.1789426548179736,0.8618158284023668,0.968300714448063,0.7962595076075656,0.37578835318233383,0.8742588560848067,0.43841208011932975,0.7188296016612564,0.3993643406585043
12,3.5789812403720314,0.6819326768948936,0.5042520870241682,0.09349087131731654,0.3624537756196207,0.12401040096391719,0.6758265336063866,0.038869592375765524,0.8414997523154449,0.4482672751970775,0.9715450928648925,0.8517158912956898,0.8935308824159771,0.6189995842314843,0.9454761537957486,0.6175192128531602,0.5414565575768724,0.029393657635291878,0.606147888418124,0.413055796913141,0.9760297553564881,0.8254233369702456,0.7197098310004052,0.4231357692117012,0.7436625900533257,0.5958191045604774,0.8418428336140694,0.3776167635341888,0.4602250824517069,0.04418937949731632,0.6634921002411105,0.03833319769562884,0.6141164430396959,0.08015323887065955,0.5462486352164859,0.030006248642175957,0.5431759576033113,0.030268333635416887,0.5286839027102446,0.03054225322453879,0.8029525202887149,0.16743743955974275,0.6208818787454751,0.09865839160136328,0.8151167837927683,0.1734327868956185,0.8853505360489049,0.9741531618559071,0.8082538470561824,0.4682340143423673,0.532905795666626,0.0672178515906886,0.8815517572993369,0.5151143526096906,0.8885383170965114,0.549382813353249,0.7116639737377257,0.3231274340901415,0.668040293040293,0.3485421489485232,0.12184686823692054,0.8036581777997833,0.42832038622097646,0.8376334804698682,0.46733579175332673,0.9230070332313646,0.5517316753576988,0.5787554696969167,0.35890123101075827,0.6617328296277947,0.2726491400966341,0.683936741241999,0.5200002593308031,0.830382300204918,0.3649053922304345,0.874159597270861,0.9708519253457543,0.841822052027688,0.38761812439189125,0.8543939609742203,0.46555817525616017,0.7489112537721762,0.44633808811194164
13,3.5082991986172445,0.5008014655369819,0.6142193026037955,0.1311545821530574,0.4322623184604422,0.13441452609152135,0.6993395636924228,0.04801570125581198,0.9432406729945801,0.6366460702920305,0.9671830663899608,0.831073946566003,0.9261445539709611,0.6287287012732773,0.9345429692455907,0.5723168194824101,0.4645684419664258,0.02101563679100328,0.6073287992449647,0.4117384719458109,0.9814033212845095,0.8546241699755723,0.5537720506949608,0.2058031707276931,0.8016964458399015,0.6044334101035609,0.8326790244006694,0.3778531167604686,0.3811485415685099,0.03442936780953925,0.6075538033609944,0.02857103992967295,0.6161313954570207,0.07056686935754941,0.5531875898668925,0.04903140472535141,0.5911484172380219,0.034272967251676015,0.7126377545935682,0.1500401270722717,0.8163487838635354,0.18094868174775008,0.6127895335709748,0.10368114152251433,0.8107782833597652,0.14103322671798688,0.8871189752096581,0.9747455569238014,0.8600070627244045,0.4895722258483028,0.4351732364861165,0.04151884388606217,0.8944597301421908,0.5669431330033187,0.9260170280383084,0.5806624006147715,0.7208474320840424,0.329771678141807,0.49565018315018317,0.41326978423016797,0.136552328346781,0.912392533751757,0.5830992805224959,0.8514825465873013,0.4884727622069981,0.8990966611760399,0.5235082765143191,0.5901294062338505,0.3796799258869991,0.49691839842139995,0.1436311272499254,0.7504588760679323,0.5188754749391559,0.8150570590729226,0.36686289746670975,0.8707583625166042,0.9699774439014106,0.8403325539654557,0.4068297268711517,0.8853938185443669,0.5012060737124104,0.7568445455061634,0.45624502887439616
14,3.3964332024129,0.6068239065720175,0.6687207048486948,0.1640760615024689,0.36662782074612255,0.1441790886548138,0.7227946307622839,0.05708054861458729,0.9356511514824885,0.557838637171142,0.9574638048002168,0.8306287204968797,0.897281645187065,0.6146667041042525,0.8865480217855932,0.5266345567516463,0.5144434316512637,0.026530248779181084,0.5865154527946546,0.4044388985156462,0.9638185342343757,0.6684411157225743,0.6048606685235673,0.3144999914381347,0.7671835360077748,0.6249457256559809,0.8135965574311372,0.3208885435878939,0.39730388684429885,0.044076620922383666,0.42327212412064125,0.02441097895080241,0.6560970039863137,0.07318870393691804,0.5698482032587748,0.07861630948123134,0.5020506952510166,0.03737089732664774,0.6832028378551535,0.09829930201798447,0.8057000263386348,0.167215463317196,0.6462547215244777,0.15587307522002306,0.8445911667368929,0.18479541804148136,0.8849338412230311,0.9743460555814586,0.8894435547126842,0.5370759724348564,0.3939290213045621,0.041823535913779936,0.8397841341248076,0.5141172895232023,0.9191970816803184,0.5397760529937811,0.7089301577487722,0.32317905617247955,0.6314102564102564,0.3521227810160604,0.13114074383424393,0.9160696873223513,0.5358950371084935,0.8015547617114557,0.42952407198494164,0.8162691772484698,0.44640301529240356,0.5732017806335108,0.38298943348693715,0.5376444434003969,0.1870967116793393,0.7010227005635512,0.5238089840952231,0.8035574697922554,0.29961474109579067,0.8711221470836855,0.9709580498180646,0.7974957259039512,0.33210239027367194,0.8525077827741266,0.4805809347660503,0.7293244052227105,0.42910128303955997
15,3.299948107476508,0.6484237844439356,0.6025278814661794,0.12949585629975366,0.37879762475882683,0.12297962870954846,0.666457619723085,0.055108687504189235,0.9044951328207287,0.5532678748674379,0.959513602470761,0.792037019395507,0.9117199928141787,0.6594301923210183,0.9452336520913527,0.6826088437329947,0.4985313099027445,0.025556214323070217,0.646100047754345,0.4830177435835423,0.979976740531196,0.8653258830694903,0.6982583196622959,0.3682187119589877,0.6256134752201561,0.44789372333938293,0.6529610206417882,0.22779060031126616,0.40181805601773907,0.0358898021827825,0.4213897093113633,0.01833431108052802,0.6217533534286396,0.08717128298670272,0.5395039571264073,0.07431824602722503,0.4958254949240585,0.026365979146984474,0.5783029068682659,0.03336801222358075,0.7333983550725939,0.14319637304089683,0.6314996050513775,0.19098482052897472,0.8363826349879204,0.20134365415377858,0.8933496759131263,0.9762126189962033,0.8377783168235259,0.4826042986344407,0.40808010380549953,0.04003537250413727,0.8265113816866023,0.5422076304079188,0.8965778010809066,0.5253309788786964,0.6886058434057654,0.32555905037811256,0.5792124542124543,0.36787027061592875,0.12225406024304125,0.8592579835771879,0.5090428958218635,0.8425955995778192,0.4537547978590757,0.8936307277549727,0.5602814909209249,0.6105508718268176,0.41043769732773744,0.6358777012063733,0.21598220821621422,0.5659615899686794,0.36555144385270133,0.6517607935274166,0.2147092191964609,0.8773804492211086,0.9719827466647076,0.766034591624843,0.3420095528934432,0.836008301625735,0.41855171837702404,0.7188117164115346,0.4167779846702904
16,3.1956959296506686,0.5978932905885047,0.5104590636011218,0.061416547991932594,0.36557977366531985,0.11537531899814178,0.5602302252993933,0.026971052185830534,0.8793143559134984,0.5390893550645474,0.9598681235326837,0.8119570439698583,0.8724533559760556,0.4997672815846512,0.9059791352683743,0.6091910635469612,0.49532746781196985,0.02611847175310631,0.5408988090749092,0.37108945679373395,0.9516191523914295,0.6630579934216653,0.7194300480551721,0.4581264867492064,0.5321247197118318,0.3238293636642361,0.6608902029982889,0.2361346990721697,0.39565551166185076,0.03659758759287232,0.4251585078269958,0.0221253420504744,0.6399318416482922,0.1073094543035089,0.5116111008358739,0.03696019059281163,0.45094209697712495,0.023239531534971554,0.5190136370210015,0.04377680748100493,0.7593491984343258,0.17067084202400787,0.6324852676131534,0.1875974271414567,0.8478808256913757,0.2316861560101617,0.8742950060926284,0.9716873927666542,0.810020676692305,0.47349395810919626,0.4051568878572,0.04111638892094217,0.7941325489693237,0.5234387593773463,0.9069206397075538,0.5541453910261046,0.6639528955677427,0.30244330976768724,0.5858516483516484,0.3494908234361981,0.1171556616821853,0.8234647365596927,0.5056324483383399,0.8124564679540045,0.3361636972901679,0.8323056565075546,0.5063706432292155,0.5168488829627763,0.31123583476320577,0.6317982629419792,0.2553725960312772,0.4735789600266743,0.2877815878566345,0.6333490849349915,0.19274962950659055,0.8581410004830334,0.9666045071952234,0.735301340784966,0.35720424445969623,0.823108226341384,0.4224991676726416,0.6808948584484777,0.38716091072956166
17,3.1025764098668605,0.7171971605220976,0.712361736691748,0.17596653772634216,0.41462522860201345,0.15808100853240795,0.7197056771068511,0.07394351614625279,0.9298800193042625,0.6328207368906674,0.9651245042408335,0.8679574625303511,0.894645178395722,0.6184917426069301,0.9089220498617662,0.5791823340644919,0.5989871298274171,0.04334803903008885,0.5762614435519368,0.4043553003511858,0.9728446749436848,0.8119261468653369,0.8213065085940666,0.562928850011401,0.7392702060901071,0.633906479789147,0.8195671876648852,0.3711439632603762,0.5051595329329086,0.06107322623851483,0.5976862983750674,0.024594258037830215,0.7045225499655501,0.09985768848876675,0.6376745878801258,0.08073331543895151,0.5303555669831788,0.03764584141153506,0.6762561922595912,0.11902352575111051,0.8553535224449575,0.23152907254260852,0.6406285408229219,0.25606041460808066,0.8310792469769186,0.18277695149384224,0.8797906593350331,0.9728879265816716,0.8891195912808125,0.5674544055082357,0.5066509613804784,0.0532379817437427,0.8677762345614287,0.5832372776094841,0.9255700494804462,0.5533175609672324,0.7452268547983226,0.36138820608246613,0.6755952380952381,0.3767097488878517,0.13213826384879235,0.8744401948285443,0.5530350085472668,0.782006469449584,0.39056769873849007,0.825304381171508,0.4442560430988863,0.5379484101569837,0.32367385477540433,0.7351136006902104,0.33231167686085455,0.6476698169415186,0.4805456010166859,0.7965586798685698,0.3245611243350063,0.8564088727206859,0.9674358156432493,0.7763847390656226,0.3286703759636108,0.8621563879789204,0.42711505331580113,0.7337001183418181,0.42766459237673166
18,3.0069284428713767,0.7028471109075644,0.6493045159476756,0.13554315074296672,0.4175806443575564,0.14598117775529984,0.6748643475378833,0.07513484930135314,0.8987425063343252,0.4812144940215823,0.9652828938848932,0.8463836365035161,0.9036031331529815,0.6284272852718429,0.9117335185977806,0.661995367317876,0.5346869765645818,0.03168952046271898,0.6935158354524675,0.5237206874420555,0.9808955943213369,0.8532257245462557,0.7027903546404812,0.45117865331261575,0.6242789112788278,0.45108884995957954,0.6756485539527696,0.25742614358372895,0.4332382516613896,0.04977055285599989,0.49570829929452853,0.02611807859722433,0.6837575446858151,0.15091153660401055,0.5865436820218485,0.06740160069543459,0.5046814250390796,0.028321477712013574,0.6757906722146916,0.08237703766392747,0.7986581702818165,0.2082755308989681,0.6440514858510639,0.25831029951440476,0.8544690365734103,0.23040958245319432,0.881430979223625,0.9736736246789954,0.8443745828903817,0.5279621190847428,0.4590066489865904,0.04969918641922323,0.8440760464794395,0.5909755793502725,0.9542068118569742,0.6339020058211579,0.7145526452994154,0.3489302871322578,0.6380494505494505,0.3891347332228301,0.131510444686262,0.8493339743635742,0.4522172257533743,0.7887761032035313,0.341640381759477,0.8397753781705464,0.5077634941594215,0.6445819815847218,0.4131171817157873,0.6038332091153904,0.24098306708102796,0.549491792704991,0.3392024616378596,0.653252963362069,0.2170896017383508,0.8596527442337881,0.9679458684904994,0.7566448952587566,0.31078538241784026,0.8855270921928093,0.4777089863727122,0.7109095334011827,0.3999967359829647
19,2.9276845254076225,0.6814746965880467,0.6803934947603764,0.1796888225602567,0.48661240469159056,0.21117484067706851,0.6995968814757042,0.07807988298712672,0.9138781567018226,0.6430539663011079,0.9803964613983847,0.8482569863742253,0.9291221305478803,0.6206461629791786,0.9532198701870862,0.7256216951760728,0.5506121694344898,0.030220205674801118,0.6892286044243706,0.47261561730557977,0.9885858871601446,0.8134869628198281,0.7620182188703593,0.49734950506028797,0.6882424040208098,0.5769227689357231,0.6136670531519702,0.20075184601943197,0.49443603361986876,0.07205063909881479,0.5483959040982169,0.022133482566678,0.6212862123774161,0.07298564770743636,0.6056592277264347,0.11112883188058337,0.563104037970293,0.07052726438142119,0.7166640814849284,0.16631371577710558,0.7741074779011398,0.2270991223720323,0.6440579800300578,0.3102777827642039,0.8858533972215811,0.23353730608952095,0.8915996682333426,0.9757540741495795,0.8620744256789142,0.5491195674115955,0.47627737322374214,0.04814190427992504,0.8369768651364058,0.5960129893792309,0.9424588151825589,0.6825135408387267,0.7332787124707366,0.37168389376176086,0.6462912087912088,0.4460988734831638,0.16584733443870456,0.8718824522755376,0.5755830319539557,0.8410188314823756,0.3803514262387466,0.8810589356318433,0.5626287521619311,0.6353450327394389,0.3870479566883209,0.6419250506659718,0.2741837116881781,0.6034892619173859,0.43715919300253137,0.5875996988058225,0.18771179858731474,0.868140170269291,0.9690520155489672,0.7427352202675889,0.32235010712146434,0.8616110851120108,0.5712256347131879,0.7255367829682209,0.43937645110393664
20,2.8164216768522317,0.7020074803450118,0.7584094653165021,0.22124842120457075,0.4606937269840752,0.22425296207954268,0.7839541647472357,0.09042878793487355,0.8514977485957098,0.5240058312627001,0.9380693975607742,0.6949423974950515,0.8988221176885351,0.6134879663069193,0.9407722916838036,0.6823811759231537,0.5512726547731011,0.038916744898834295,0.635673904152006,0.4157714105743486,0.9740761695217142,0.7896106844316862,0.7196326547974523,0.49791208242620083,0.7878127389215382,0.6792673279786805,0.779543517666341,0.3309468218409389,0.5229392839139274,0.09363853681945354,0.6542544922953786,0.03534714724168257,0.6755972151106466,0.1338135872263392,0.6061745640150589,0.06728068205295257,0.5904739963193961,0.040381407851934344,0.7291681184897443,0.1476763257350201,0.8104602176445803,0.21927592920508343,0.6634403699357794,0.35449582426153536,0.8417203244664745,0.20586160485581623,0.8609981466121914,0.9691549459136642,0.8188086537669343,0.5170305949880643,0.5490784049594089,0.0751119092860468,0.9039507703332568,0.6747075058877419,0.8489151173854378,0.5297119995999804,0.7465263047280373,0.3654318746401043,0.6929945054945055,0.41208228396209823,0.16134809355973811,0.7735409186983896,0.47479101127532364,0.7964740645150263,0.3754418715885212,0.8565261472940507,0.5261167779614185,0.5750571904860229,0.3289972026006621,0.5931703978319877,0.2624749780599798,0.6998136072195773,0.5220436270062933,0.7496742951526286,0.2741848358925508,0.842586568651129,0.9646933876382054,0.8044922835478814,0.36068559322281085,0.7610790078743362,0.39789220536474346,0.7149542513848298,0.4226063258336588
21,2.7342637800349596,0.7939851919700787,0.7079299563963939,0.2045906913040068,0.5262935238527542,0.2724624729845039,0.8010561051589745,0.1113035055221067,0.9001614279757563,0.5403992475195293,0.9625395701530671,0.8084031493253957,0.9220514171528253,0.6567086299133233,0.8767857379371305,0.6126171548062066,0.6099108077071111,0.053164175739438616,0.6835459476888078,0.55720237440685,0.978973230656399,0.8744010693836165,0.7914619084571596,0.5671923068843583,0.7760173130791838,0.661600272130636,0.7765896100461244,0.3629524937261366,0.5703021472038905,0.14544424161725125,0.6740956702640309,0.045749027120449634,0.7259726520794608,0.18752479123052895,0.6603739954298397,0.07560623522208061,0.5709806512567338,0.038043612503177636,0.6804153375460557,0.09328081270645946,0.7871939998081381,0.22724419295337575,0.6992296194718729,0.38875895963621293,0.9024474732310923,0.29385917511835963,0.8796444362526752,0.9734978652645352,0.8862878400161224,0.5489581079696936,0.5090794924104867,0.07468593298088977,0.8815966357350986,0.654587461059411,0.9074895892151328,0.6184779242854893,0.7647565220808267,0.3943968845671861,0.73992673992674,0.46723446764856225,0.18091352068142186,0.8407550124339137,0.4847296698435356,0.8256400011964635,0.4058412364381938,0.7926068275507447,0.4440761241279871,0.6269278822430102,0.444748142198228,0.6714319730578756,0.2894779737550983,0.6925825512306844,0.5220553159627672,0.7454842955059355,0.30386613030948095,0.8593493388479653,0.967302090136465,0.7651492959946882,0.33087045056155495,0.8076403442733026,0.45507227568893704,0.7358910899984679,0.4389957208821518
22,2.6326794780562754,0.7758186397984886,0.7282138864737301,0.22941892321070062,0.4457631898321992,0.20729057595684705,0.7614436097770116,0.1091097359918624,0.9299523100117252,0.642437316769763,0.9580706925229687,0.7927882998867207,0.9224755467750256,0.6790183394114049,0.9325099806486603,0.6424680578899646,0.5903708985813266,0.04662621072155988,0.7546868929704279,0.5478807073520608,0.9848676200953429,0.8771621350393507,0.7568503945913835,0.5015898530643192,0.6397801547743549,0.4818422480735126,0.7346640249416599,0.2743168899802384,0.5908794903644349,0.1560716259001294,0.710710730243988,0.07465322117545736,0.6709137682342785,0.09877365087790252,0.6300027146513613,0.06913285527128321,0.6109989659344205,0.05404319330408125,0.7796683324228998,0.21651929451479585,0.8448892540064725,0.2634546483662628,0.6825108683503452,0.3834721459301628,0.8948897165470704,0.25716130894007105,0.8663129870262853,0.9705259313602919,0.8910822844146253,0.5848814510369397,0.6070592953106371,0.11494423521605401,0.9093859743204272,0.7205170321064025,0.925884114650172,0.5852397719134006,0.7686976925360456,0.3919014688615385,0.7046703296703297,0.39631588325961903,0.14501618661060856,0.8700821459523804,0.5696217713875659,0.8095924332223756,0.443619035241264,0.8812303361483689,0.4847171716089387,0.6954211447896288,0.4229605308677666,0.6463928924557353,0.2668544459182046,0.5602693676310626,0.35586939671075346,0.7172009698275862,0.2588697200112926,0.8484927846878396,0.9653665689030582,0.778576674235471,0.34744313058286863,0.850513764827965,0.4612659086830365,0.7321898542761848,0.42923671513866885
23,2.5889295670160144,0.7689489351957866,0.7099790643855944,0.2359259161391812,0.4664528215728725,0.22154763977174752,0.7582581144421793,0.0927534475379431,0.8824363481688207,0.5848943359555286,0.9424357853073455,0.7762004017837502,0.8410452480384684,0.5547259479587504,0.7852927988060169,0.45427910419072826,0.6721747007343135,0.06278512090286348,0.7146849219192444,0.5671205554603831,0.9686032793755567,0.8099060170058264,0.7156110707864682,0.5037181485304966,0.6308039522126556,0.4933458204584451,0.6738093870512284,0.2630834067278131,0.5932960419885935,0.19228110868225304,0.6041278183303511,0.036132211188020194,0.7558677275149334,0.22411141018193054,0.6569452565196379,0.06585669028474496,0.5935685212583238,0.05298151702020472,0.6694515443276242,0.13459574765175833,0.7879987349319788,0.2561721141640722,0.6766515808027969,0.4025621785315801,0.8544031862252083,0.23413087483290984,0.8789837700570352,0.9734372080671069,0.8247562272800639,0.5424111853367553,0.570465118361019,0.09441506191816632,0.8781538185916559,0.6708303338733994,0.9002018106470041,0.5960557252454313,0.7409799499865551,0.3739355270148811,0.7213827838827839,0.40588919029677173,0.14785714143477227,0.8255098143802856,0.514827758355781,0.769871978395286,0.33615279079272675,0.695739389872263,0.34056012379418243,0.6434460461280204,0.42270152980967673,0.5878411277423157,0.25107782955087954,0.5581755918380733,0.36895546669014845,0.6534174719120972,0.22710304088243286,0.8583727055911121,0.9672707315244968,0.7371370273121987,0.3178658594489645,0.804039921053167,0.46891732378215456,0.6854036604110536,0.3966626905514742
24,2.4990337477159104,0.8121517441416686,0.6400349907497598,0.1701273782541179,0.44178464274663987,0.22906079965966072,0.7035197423933519,0.14614103370901071,0.8306748342099683,0.5289475603385102,0.9525867289187869,0.8056189878192249,0.9035121665299659,0.6585744073372695,0.8393412266490813,0.5323103435397083,0.5794015505184669,0.05582751822590111,0.6013670671030973,0.4391704642794034,0.9541767510084342,0.7398920246159777,0.6535272260186398,0.3975727279275045,0.6317172190805516,0.5291313217138066,0.7010022681522307,0.2933304541500828,0.6102815878172455,0.2301492641903262,0.6603867690201124,0.06084575517584771,0.6752980951965799,0.10245730362870013,0.5753662541987603,0.08207588916202649,0.5959979244295204,0.049290183888952,0.7177869495529884,0.2078071519140537,0.8413148944810561,0.34374495303677893,0.6553713525358231,0.3105099797164457,0.8454833224994337,0.2238915057450347,0.8482170204487043,0.9665143625934698,0.8273635548106923,0.4949908227141278,0.6001722806877114,0.11133573888355461,0.9220213810694489,0.7233206550451293,0.8688415841992564,0.43313409042745904,0.7287610883343076,0.3653989880626697,0.6996336996336996,0.37796353549496986,0.14205490276204508,0.7598432824575377,0.46745275108274925,0.8015568982535904,0.4013786323910107,0.7456910200654807,0.4105375021029157,0.5322809817282084,0.33774436827737525,0.5488977348199623,0.19159225768058666,0.5407779302202277,0.3817621576455296,0.664562098113341,0.2256701152251956,0.8266872207462866,0.9598271951603119,0.7837671341098607,0.34704266396724026,0.7929619305349258,0.35487820256304,0.6704536151403993,0.3836309771689091
25,2.430927068629744,0.7931455614075261,0.6655310062823186,0.17731563711224205,0.5152381107699918,0.3138306860136666,0.812259881078895,0.14353012403435217,0.8406958030731846,0.4840947265800336,0.9346330090560128,0.7049305658444185,0.8984680040706812,0.6418093956480982,0.8460506728354872,0.4975770024428431,0.5786424805775734,0.03845966732664915,0.6753966862196847,0.5236079532540658,0.9501325370632302,0.7866789005466983,0.6892099861519275,0.41041310657100505,0.7387843722218108,0.6591474320857904,0.796775530404327,0.34635399918089615,0.6496325503853239,0.20047980050642475,0.7289312752397048,0.05252158764836626,0.6724166872152342,0.1322594730427701,0.5893905234802427,0.052683847035421505,0.618546505518581,0.07243699765974393,0.7159211227331891,0.15426218005590014,0.819332303742425,0.3396209568972529,0.6838606321843991,0.41062211247198543,0.8699195185937245,0.25415091567329146,0.8623570997040724,0.9703372626397887,0.8487197204067713,0.5358388330070859,0.5220712414741728,0.059250998642789876,0.9227635229991499,0.7521573254256001,0.8624478773273593,0.5041916229410092,0.7521529133633138,0.3784653003810441,0.706959706959707,0.43633333606277086,0.175588014646071,0.7613485873017012,0.4153507034871035,0.7686456032099409,0.34439016569633685,0.7792412186286215,0.3785331622198852,0.6164930245688695,0.42765884395427445,0.5579316537928471,0.20165520827674233,0.6456255090272045,0.4992337560551675,0.7622939778829847,0.281264589875457,0.8437911333172322,0.9654217767826222,0.7957428878982572,0.34397077370960333,0.7720379677294646,0.3761022981646735,0.7035895363108995,0.4008335720789034
26,2.402607308686321,0.7815433936340738,0.6044612797364172,0.1292512588321963,0.456418184149143,0.16167084393478717,0.6915109456979659,0.08963669678022575,0.8234418435388425,0.49261657593201236,0.9277871964471069,0.6300699955813164,0.8837695797980167,0.5182243594034455,0.8637629694407769,0.538843261417852,0.643046887844739,0.05443096668876971,0.6743689748106538,0.4535221668794268,0.9724155272670124,0.7824544687931686,0.6800542022211993,0.39683350149930796,0.5110969946546691,0.34870113151341964,0.5809304566893794,0.19368920590810065,0.6121783889216537,0.1909692674715607,0.6616554931189247,0.05584759925318352,0.6867796480046637,0.15733415611919674,0.5470559456831078,0.04127637434496319,0.5183274640192604,0.031034564505509503,0.7703598048450052,0.24027751201312517,0.7905799719935906,0.31610076541189186,0.6680749920446307,0.3772960057343154,0.8652049724423705,0.22695901339991845,0.8521000010239711,0.9667190935480887,0.843926194836248,0.5180278516771735,0.5583788763812998,0.07569587741298184,0.8857038214976695,0.6966874228061742,0.8790084271671299,0.47747675363752135,0.7204592238620536,0.3393202477962827,0.6636904761904762,0.39243384330923237,0.12793401523487224,0.7673036306709051,0.43576688679447345,0.8093339116240711,0.3573732808047747,0.771292156538058,0.37753141864045614,0.6166598423047445,0.36304638396429334,0.563846065138608,0.19303702849185575,0.44644186567694466,0.26886485903791413,0.5627208168456755,0.165105062496786,0.8398419574930562,0.9630886677550279,0.7387064150202002,0.3293720721258301,0.8091104238305492,0.40203564138852477,0.6652446298592768,0.3621050287940735
27,2.3224791851073547,0.8113884436302572,0.6946267707836228,0.20200904159643732,0.47100563141269136,0.24367895971137576,0.7242229915149746,0.11506040234309811,0.8621181013196654,0.5514429983962055,0.9175273049152874,0.6601728648874692,0.8558622720777378,0.5772401066543963,0.8852387478512065,0.5690180949767145,0.6291596875277565,0.07434020300765791,0.6220415897640852,0.427753588256443,0.9698284876106658,0.7732516816803984,0.641784456423814,0.3793129573681689,0.5224093258814806,0.39674235824121173,0.6683392730959477,0.2849950831010593,0.6269192055642135,0.1964898519336402,0.7938974900033403,0.10984264273762503,0.720397213028681,0.20729785361921282,0.6572424511810225,0.059990250628600604,0.6238639924788467,0.05129713332059285,0.6409036446566542,0.2282802367194997,0.8565029987739146,0.438188294196424,0.6594254292225067,0.3710393344713153,0.8356144515047123,0.19855429754706327,0.8670621652894254,0.9711712896653101,0.8031551940273731,0.5135273163397732,0.6526132923911075,0.1311366902200975,0.9425812170864009,0.753047384408996,0.9277068613557531,0.5557612645177985,0.7434092683978847,0.37187563631654014,0.6527014652014652,0.403872525911135,0.1509506189852809,0.7890835101348954,0.43310155822043417,0.751294744533657,0.36062334033841636,0.8191332363032104,0.43840356734787356,0.5595329336707018,0.3336018145715063,0.5209743242579491,0.16730835881203687,0.4456891886721291,0.27682748884635056,0.6296724844544941,0.2381939311002115,0.8551805337519623,0.9676965025713578,0.813282511683121,0.36911434193510073,0.8444360795165523,0.43626837704186394,0.6756501884445278,0.3792808999791303
28,2.2783297427182307,0.799328295549958,0.5200958200681183,0.12419903742765184,0.5312493346362006,0.25641398049542374,0.7545975124173885,0.19281712443281923,0.8152074488053254,0.47488823988677203,0.9226809860633889,0.6996955667235958,0.8809231853994898,0.5968265860151082,0.6959456904231781,0.332676354878228,0.6583032487563537,0.08194651936717509,0.685043089891746,0.5057893501597219,0.8493448582953533,0.4320814189953068,0.7385154679428925,0.4701982063191885,0.6591196079218313,0.5496531801240585,0.6641863705156239,0.2569805231741465,0.6407910256959386,0.22926819751695782,0.7308294002665775,0.08711896151834117,0.7133100717041996,0.1946398141498749,0.564075094416171,0.08847979711980039,0.6058303816278536,0.060154619592936984,0.7773562807552328,0.24599587943382073,0.798894099366144,0.4228859359055467,0.6698214134956559,0.38902082263080107,0.880155965808636,0.25239633962240265,0.8568497731903868,0.9686037341217238,0.8649704949021892,0.561919267083384,0.5093360176435646,0.0671673761376098,0.8986697947755269,0.6704735868215206,0.8726503548329141,0.3795949647611527,0.7318056588747363,0.35525501423759515,0.6508699633699634,0.4576155400133587,0.1629447463797571,0.749229607624114,0.4005178539758707,0.7715972361690944,0.34964292383394363,0.6113260880301432,0.2478447343094636,0.6051395027898225,0.37627318877912935,0.6089168907216671,0.23295583724652796,0.5812254368751606,0.4217020839158411,0.6455834422696438,0.2230517788848116,0.8469097180292234,0.9654873203716158,0.7656037793128425,0.3141804734534704,0.7894001668463995,0.31591005102890884,0.6756861280619518,0.36459190837994004
29,2.2244251458920212,0.834592779177162,0.6191263425922899,0.15263545442912957,0.46873476458466123,0.23122444276560772,0.7259018285146113,0.13899691615235507,0.7967008453728205,0.4544144850042928,0.9296946656951095,0.6567856219655714,0.8950646121895997,0.6114102178244236,0.8323346004185355,0.5411613908222146,0.6980596156523371,0.07364681823852388,0.6520757174412133,0.4870985775612263,0.9654607365498453,0.6130628957893698,0.7278040810013888,0.4522588050783809,0.539093253492829,0.40713608349723784,0.5532478457229034,0.19695528231646098,0.6242268813980383,0.2224996741436383,0.6705087795310748,0.06139300964019631,0.7155312688474824,0.2044002925536835,0.5491993270051131,0.10212327368352717,0.5497690555875343,0.05247910647797256,0.7278980074618087,0.27040777106595787,0.788831435787798,0.40684382641206285,0.6644009957285393,0.422051025438252,0.8685951008187887,0.25328388334632485,0.8569322643074371,0.967713498035424,0.8298842062352281,0.4899146442211403,0.5031184568621585,0.06107755912142927,0.892316949608527,0.73435063855719,0.8920419598399906,0.5362167892954164,0.7235760591943579,0.36302007346063003,0.7019230769230769,0.3769887363913171,0.13047663163262246,0.7353653354126952,0.41194521770517667,0.8061258936087478,0.36574864787940303,0.7236290137498076,0.3914470632202587,0.5859006349572982,0.36339146090754404,0.6207168834607902,0.2280366169751866,0.46260173711512076,0.3017863172486366,0.517689085464952,0.15770881541972148,0.8398562975486052,0.9639377969738367,0.7477499229212862,0.364760004882236,0.7927564246037397,0.4339012635673592,0.655398178657669,0.37392180331018016
