epoch,train_loss,train_accuracy,train_1st degree av block_rocauc,train_1st degree av block_prauc,train_abnormal QRS_rocauc,train_abnormal QRS_prauc,train_anterior myocardial infarction_rocauc,train_anterior myocardial infarction_prauc,train_atrial fibrillation_rocauc,train_atrial fibrillation_prauc,train_atrial flutter_rocauc,train_atrial flutter_prauc,train_bundle branch block_rocauc,train_bundle branch block_prauc,train_complete right bundle branch block_rocauc,train_complete right bundle branch block_prauc,train_early repolarization_rocauc,train_early repolarization_prauc,train_inferior ischaemia_rocauc,train_inferior ischaemia_prauc,train_left bundle branch block_rocauc,train_left bundle branch block_prauc,train_low qrs voltages_rocauc,train_low qrs voltages_prauc,train_nonspecific intraventricular conduction disorder_rocauc,train_nonspecific intraventricular conduction disorder_prauc,train_nonspecific st t abnormality_rocauc,train_nonspecific st t abnormality_prauc,train_normal ecg_rocauc,train_normal ecg_prauc,train_pacing rhythm_rocauc,train_pacing rhythm_prauc,train_premature atrial contraction_rocauc,train_premature atrial contraction_prauc,train_premature ventricular contractions_rocauc,train_premature ventricular contractions_prauc,train_prolonged pr interval_rocauc,train_prolonged pr interval_prauc,train_prolonged qt interval_rocauc,train_prolonged qt interval_prauc,train_right axis deviation_rocauc,train_right axis deviation_prauc,train_right bundle branch block_rocauc,train_right bundle branch block_prauc,train_s t changes_rocauc,train_s t changes_prauc,train_sinus arrhythmia_rocauc,train_sinus arrhythmia_prauc,train_st depression_rocauc,train_st depression_prauc,train_t wave abnormal_rocauc,train_t wave abnormal_prauc,train_t wave inversion_rocauc,train_t wave inversion_prauc,train_ventricular premature beats_rocauc,train_ventricular premature beats_prauc,train_mean_rocaucs,train_mean_praucs,valid_accuracy,valid_1st degree av block_rocauc,valid_1st degree av block_prauc,valid_abnormal QRS_rocauc,valid_abnormal QRS_prauc,valid_atrial fibrillation_rocauc,valid_atrial fibrillation_prauc,valid_atrial flutter_rocauc,valid_atrial flutter_prauc,valid_complete right bundle branch block_rocauc,valid_complete right bundle branch block_prauc,valid_low qrs voltages_rocauc,valid_low qrs voltages_prauc,valid_nonspecific intraventricular conduction disorder_rocauc,valid_nonspecific intraventricular conduction disorder_prauc,valid_nonspecific st t abnormality_rocauc,valid_nonspecific st t abnormality_prauc,valid_normal ecg_rocauc,valid_normal ecg_prauc,valid_pacing rhythm_rocauc,valid_pacing rhythm_prauc,valid_premature atrial contraction_rocauc,valid_premature atrial contraction_prauc,valid_prolonged qt interval_rocauc,valid_prolonged qt interval_prauc,valid_right axis deviation_rocauc,valid_right axis deviation_prauc,valid_s t changes_rocauc,valid_s t changes_prauc,valid_sinus arrhythmia_rocauc,valid_sinus arrhythmia_prauc,valid_st depression_rocauc,valid_st depression_prauc,valid_t wave abnormal_rocauc,valid_t wave abnormal_prauc,valid_t wave inversion_rocauc,valid_t wave inversion_prauc,valid_mean_rocaucs,valid_mean_praucs
0,4.84461755634216,0.289210205957616,0.8885153884395853,0.37892855118841623,0.7944284808015488,0.25915458623006105,0.7695350684673282,0.0183148327535195,0.8890770592877234,0.1534955126688529,0.922651590981308,0.604034611355229,0.9466956377246869,0.6637818287145415,0.9815257333787171,0.5393173820608236,0.829303962357112,0.04667578938380598,0.538069921181233,0.011215406001247204,0.9566489446054944,0.18111543995074175,0.5080449684427932,0.030522273408426413,0.48949605226465537,0.023180571084511145,0.6173242550566267,0.059040991020043995,0.9202568508695678,0.7269383561819975,0.9473993267274797,0.6497299188200395,0.7447236158535977,0.1110415921084319,0.9091305672947525,0.25109875158492806,0.7787969609419698,0.029003449421968454,0.6345604867330326,0.05104445589377932,0.6434638627547644,0.06701616630010161,0.9721216158710084,0.6628169468893205,0.5024144032526071,0.09749813643515462,0.8458704439460586,0.4653458527248139,0.6076530808673666,0.05216606852778498,0.6062714915919449,0.19747895165282,0.5771450904626602,0.07640155336221312,0.7132312855706133,0.023106514776920824,0.7605317091009717,0.2381283144629813,0.2706268167250503,0.8918843599732896,0.3942202475480288,0.7887515707359714,0.2647630395925964,0.8945658072413837,0.1729110179352245,0.9194305382904069,0.5748841376306347,0.9792649513279886,0.5073903586436569,0.5258879524509796,0.029538436045940072,0.47316868088526015,0.02171260666761009,0.6204478903234394,0.059712687644171904,0.9151475824011799,0.6983932663041948,0.9598139434921685,0.6818585042618653,0.74629150643708,0.11612363018528023,0.6578215196836674,0.05571826371075398,0.6791060263801636,0.0470971401893725,0.49720155310709674,0.09722543076876193,0.8435558469160291,0.45933264653906136,0.6034332418261885,0.047991260423064994,0.6067513218190579,0.20128494565227018,0.5456430333525326,0.06415841081425278,0.7304537403691047,0.24968422391981904
1,4.4127926574322345,0.29648952821047925,0.9341698969451341,0.5334352326760835,0.7945442076177013,0.330257089186348,0.745676046341196,0.021075349521920445,0.8853425154648613,0.15242854643819576,0.9568628332354183,0.7332411052090768,0.8901985372324687,0.3470197178784274,0.9759471385359673,0.4760338898615526,0.8313733401847843,0.040612830351806954,0.6420523820275457,0.019006404569628724,0.9756831995041327,0.5839922524291433,0.5231172556580361,0.029140954091421437,0.5011504472242058,0.028119987273199008,0.6554387286427674,0.11807024532374366,0.927885983717386,0.747344544594891,0.9382039722544375,0.6721972480510432,0.8525361347872511,0.28295983200459063,0.8598431236855684,0.1453018226627226,0.8200109991715607,0.033926391789114364,0.7198374176596173,0.09946389585742965,0.6291550834994462,0.1322009644781943,0.9358721210888128,0.3151539460623632,0.5409800983564763,0.13373626032376093,0.8929987463356039,0.5908424290552986,0.6242217224360082,0.07076642118566757,0.6343627378376123,0.3493119819618703,0.5933266919396153,0.14621082265726545,0.6826425425498711,0.02060033061542764,0.7764234779234626,0.2649055739300069,0.28501155250801224,0.9345660059528004,0.5363561297909647,0.7849976602269461,0.3480496824449195,0.8902890531898975,0.16521283102835777,0.9524901738661217,0.7039822745491042,0.972202488547891,0.46774055742318627,0.5538389021884237,0.03505014806519591,0.47589056574718497,0.026654008344108842,0.6552060638752477,0.11135718587861276,0.9218966758564981,0.7153854800453288,0.9380048803154885,0.6650241570311243,0.8369452918686828,0.290166226243521,0.732643784243175,0.10065105380100482,0.6422356083508464,0.12538909893508282,0.5272188133548172,0.13414782062782582,0.9036733562877894,0.598595389844644,0.6085733504878447,0.060815094856152,0.6309327684317173,0.34620799115638484,0.5654033493810926,0.13436145534168353,0.7515004884540258,0.3091748103004001
2,4.254888173704642,0.4279893667238081,0.912277760044947,0.4939032227916945,0.8211273226991793,0.4300968845095706,0.7539324232567712,0.019746064263285304,0.928328996047812,0.38435710317312943,0.9346006089976656,0.6444328118737145,0.8556860660419101,0.4725094400882145,0.9732953693219605,0.4885258883502583,0.8372965751536577,0.06533835379097151,0.5922902920983752,0.016761729062211482,0.9543886568538343,0.42216219181847064,0.5608564554038615,0.03535370501241847,0.5782362039908204,0.05118853839409854,0.6506973731886063,0.0855943526616205,0.945904744864083,0.7694109275312049,0.941834792954461,0.6275540856919117,0.8856865351976976,0.34414470864552316,0.8472679870337534,0.204124594048842,0.8333097959154138,0.02829323924164365,0.6801417828692276,0.10506589594519161,0.8100763011354033,0.23853658106157882,0.9457492735621383,0.5145806173579454,0.4946235460663,0.15758411540656958,0.9108650330997268,0.6239913382529301,0.5381868953297525,0.06398998496333441,0.6070417324174223,0.26286125101797886,0.5555955371714398,0.09803647624837925,0.7630696789059761,0.03992028214694468,0.781939545911933,0.2847431253092458,0.4041141834985466,0.9131901171433269,0.4950006480279433,0.8152741453889842,0.44162390257480133,0.9303346295925707,0.3818652567299605,0.930088695010539,0.6118078780238223,0.9693908784817875,0.45622761876197554,0.5710431911135073,0.03449883625541889,0.536894848458117,0.04142631576000823,0.6406660910562043,0.0866368910136448,0.9427467462435832,0.7551618696885367,0.9335261874117694,0.6355272298525725,0.8792385952665881,0.34790181361063355,0.6860992206574841,0.11008219606617511,0.8001715722082992,0.16979163772973324,0.48147143454218105,0.14551028244968833,0.9137146950300264,0.5905306355420639,0.521491865503847,0.05395679562781232,0.6111678637900111,0.2653313166492349,0.5167798884988644,0.08361741629621437,0.7551828147443163,0.31702769670334663
3,4.137536010423277,0.42095848550346576,0.9026763835749041,0.5009261387175736,0.8793689985084621,0.50718389689141,0.7965939451761263,0.022390113392470053,0.9379412496694932,0.5315001246078035,0.9563892023527325,0.7546533294757624,0.8781851803317366,0.582322882020944,0.9832929020214113,0.5736322743510048,0.8971524343116585,0.12056463989521404,0.6957894388126946,0.033607899228058256,0.9699722977632504,0.5671421457602001,0.5375087813433033,0.03835747334619435,0.5781271815625547,0.06464368661837991,0.6691927846075169,0.13187352782861134,0.9580230961858136,0.8489474972711852,0.9581968482278806,0.8048713036908157,0.903541346400271,0.4033468112683321,0.8816190890635316,0.3141005271910993,0.7919013697376655,0.019440017573776433,0.74658939487975,0.19987718087214393,0.7999481053873589,0.24728614951266997,0.9631977077732136,0.6736871961064006,0.48240072995802297,0.14986273659887328,0.9217472215455748,0.6786253682613125,0.5638983585412157,0.07395752780544508,0.6130366387752345,0.33097925634472575,0.5696207310548391,0.14249575857749108,0.7894511769851147,0.043290941673812235,0.8009393553537529,0.3466506075882114,0.40567936200342847,0.9071526722167974,0.5093603275512464,0.8636868409738206,0.49159352232742554,0.9349202142523612,0.5389059879453482,0.9511096306697676,0.7289414550533531,0.9816189594126556,0.5531100633149421,0.5514748493511566,0.04461313292152684,0.5399593909871856,0.05384252837769403,0.6659263417094581,0.11308870951412303,0.9536676097950726,0.8235617151533401,0.9440152346707505,0.7964874946799793,0.8953806205917653,0.3999945986211125,0.765012881254313,0.21422150082747451,0.8046365703539707,0.20990637674815027,0.4649472925744372,0.14123002523568123,0.9207328754224733,0.6690742296149976,0.5490858784527587,0.062347598469187235,0.6198850174262538,0.3445881288376781,0.5328887053479249,0.13338070125219095,0.7692278658590513,0.3793471164691917
4,4.049200601333245,0.46826165809545106,0.8918503410924762,0.5236617846518422,0.8633490625000406,0.4800017830818298,0.7954074762975515,0.026730765596869932,0.941085907677118,0.5322014656079648,0.9536947108330796,0.7595137233396511,0.8795936074440885,0.5163662399128458,0.9801280166222475,0.5629353774480101,0.8874743679528144,0.16278269454493607,0.7086650147724882,0.026707394041189422,0.9577514156957593,0.48240942597362124,0.6332137127838721,0.051279613362305736,0.6529973687165529,0.07179869763652959,0.7412093951529883,0.15401128229988953,0.9597595065861235,0.8178329009449447,0.9581906240125453,0.6922498174877335,0.9332279031952134,0.5136449999763655,0.9437514353538106,0.338736958057443,0.8492199038319461,0.031361964627855315,0.8054633778017789,0.26441704876937616,0.8380870712843632,0.29328767091704894,0.9623998372761859,0.6346457864221082,0.5440507660757375,0.17379781505715683,0.9504162665113645,0.6916147324179958,0.5658981016123873,0.0702350951624505,0.6815795458890943,0.37680951034509125,0.6451035108681151,0.1837891109475143,0.8105304813905727,0.04991345202846688,0.827188841823345,0.3512124855799644,0.4545725572035477,0.8941653999349017,0.5123762270153959,0.8558812630498763,0.4714334644598597,0.941250791006593,0.5258997587016964,0.9473782629250215,0.7310682459873233,0.9724232864373525,0.5503921102661442,0.6537581364365462,0.07731082424188801,0.6089778858327882,0.06438337309285783,0.7356771070495353,0.14599889467098007,0.9558539994790477,0.8032899100132428,0.9437323569431147,0.7122475444220752,0.9259641004530332,0.4890015713128448,0.8155502152074886,0.2852354017490641,0.8180853215855071,0.2335889869666176,0.5242540994664326,0.161363608641425,0.9535008728286699,0.6704001434210652,0.5572459691648012,0.06540599038239805,0.6865155990889316,0.37995957689098364,0.6139351424193356,0.18304228865878006,0.8002305449616097,0.3923554400497023
5,3.993591299519261,0.44955404834662493,0.9235081031905956,0.5530041426961293,0.8558817207678833,0.4446275000585978,0.7273464414108559,0.021407951500681328,0.9208084065420541,0.3397178887385918,0.9655556812709587,0.8083031282563674,0.7790724760505114,0.38131083615521943,0.9302803640696206,0.4101645521437532,0.8973619926232116,0.1797579628927736,0.5835635242724879,0.02104363296768734,0.9320333731754991,0.5885926553685836,0.5967329009474589,0.054646821754292384,0.5777807376138289,0.0463864979086111,0.7050120636586297,0.15222125493671138,0.9632764609752907,0.8505696312210758,0.9827566356246005,0.7768109041196447,0.9013625903735474,0.43795792618859014,0.9019572476897129,0.25580601969387223,0.8693472556576756,0.04185723708935504,0.7743650271386325,0.24721899603521985,0.7695347632401153,0.27605456685979335,0.8769660716010773,0.3873584577473229,0.585304916258339,0.18274738285778258,0.9477593111355638,0.6712115419436973,0.6073545180688038,0.08044586268542156,0.6579343177419552,0.3516065374324828,0.6072577491555304,0.13990854549021076,0.7964497782435968,0.050117510632710756,0.8013542380925197,0.32410577575463634,0.43511962435715884,0.9280694336786227,0.5483135015034633,0.8449958549198182,0.42262082073802726,0.9222749259473598,0.345945032078924,0.9588521609756785,0.7739492943840001,0.9163868870172596,0.38859169461481663,0.603400743948891,0.05996727163082083,0.5452931482234067,0.045738421829575264,0.6933280559311228,0.13469530282652292,0.9589336722449531,0.8360010494305843,0.9726996005364128,0.7507689785860641,0.8940811819854327,0.45236086337747516,0.7773310086714506,0.26248477810040954,0.7452827008012947,0.19893421853285867,0.5695074052640604,0.17243624615010927,0.9476524230264249,0.6353504791819069,0.5897466613612927,0.07735081185800441,0.6639310362625368,0.3472564993521741,0.568375517567406,0.12431694127153688,0.7833412454646347,0.36539345585818184
6,3.930206110378469,0.3987727012993466,0.9342544915004978,0.6076757670317571,0.874532885850228,0.5223292441063807,0.7805872186626607,0.026776101926189316,0.9409972582743188,0.5574918661344701,0.9474443665359755,0.7731750150526989,0.8879314699410201,0.47166674215736637,0.9798794212983867,0.5148566492682611,0.9293444125706767,0.218711642472626,0.7324508436046029,0.04139207666360793,0.9718292175681296,0.6781099172853846,0.5806018901641938,0.053762639111552164,0.6069726472800646,0.06355207936949539,0.7256366121246871,0.1999871368909203,0.9655418802064699,0.8407134773219109,0.9783906611986792,0.8465274430655689,0.9461469814511815,0.6013439942467402,0.9401253751850055,0.4322282412924177,0.8841115776318123,0.06767202001962198,0.825016820893802,0.3051274150759712,0.6803320815898011,0.20929310955117905,0.9589628941619421,0.5868350886492968,0.602218687730488,0.20122889994988413,0.9649864868837724,0.7745536932750026,0.6501212126212126,0.10653679877677824,0.6575862988198138,0.38271924465782203,0.6040749342728398,0.19412144314330607,0.8126862002396742,0.06362468004597313,0.8282505491948867,0.38303749727934006,0.36647536707162554,0.9339203922002881,0.6105316079322384,0.860407120511377,0.4974590029035859,0.9401030877652239,0.5352518427312797,0.9392018276560653,0.7459754084091953,0.9764603576794251,0.5087819404151566,0.5946159214532885,0.061587050029797114,0.5597035093346169,0.04973191277932233,0.7105650206309064,0.18635523543384552,0.9604822247001599,0.8085556048757536,0.9648696775193906,0.8364989993813977,0.9310287531131023,0.5558731843652712,0.8297587789210028,0.2873533039555566,0.6779259991833463,0.2091554044658284,0.583030821960986,0.18101207344490022,0.9594376923437902,0.7382432154205756,0.625809306990815,0.08786962847337992,0.65877628676855,0.38295529252737054,0.564110218763924,0.17363987420836585,0.792789277638681,0.41426836565293446
7,3.882007682282881,0.36359345109438274,0.9347731725827906,0.640187831046789,0.8437481841310948,0.4729035874274996,0.6963009946468725,0.018772586637526442,0.945463504480386,0.48673479896735855,0.9694856515816508,0.8182704447724969,0.7841846367366619,0.4267756869307062,0.9649824060116717,0.5151641500037553,0.9226500534100721,0.2535816005780547,0.6683084294847672,0.029844425976258318,0.9628007985348715,0.6649370177513394,0.5948530945191458,0.054076594350550025,0.5189082212633002,0.049426654759696945,0.7243913377802277,0.17369283060033092,0.9646854021689646,0.8659620129797531,0.9643164882192657,0.8093161409709044,0.9444397687050483,0.553863932139726,0.9164923609282052,0.39990287417559495,0.8701452324823837,0.04541107121255048,0.8195323779974164,0.3285463731218234,0.799845406452153,0.2743645972283078,0.9187906421460887,0.552742432002935,0.5346136388541627,0.20837150827040946,0.9599345203596219,0.7469015367855453,0.5471558239415382,0.09215096809920709,0.6398674729477299,0.3506637276501853,0.5765236376878274,0.1667975320614818,0.8078266716502452,0.06553431882866737,0.8072229603594135,0.37277397167886867,0.34016546172765894,0.9360133518561395,0.6334458051876487,0.8333069663476499,0.4345414473050309,0.9402103581749968,0.4933884165894694,0.9644279069187611,0.7948470599806505,0.9488511931856553,0.5003474728233936,0.6049793350519597,0.055695600142899,0.47240534974282833,0.04565179359095272,0.7090164767035385,0.1588501399324101,0.9575336131256549,0.834618230355391,0.9419200258294598,0.7851158541737319,0.9312819074509497,0.5190774129495309,0.8255697082810564,0.32463303003735655,0.7798252810525094,0.23688983384942075,0.5186421549715565,0.18125995263949857,0.9556191050037368,0.7079458515753022,0.5239021517372109,0.06693899186876716,0.6446109426995943,0.3608746008483168,0.5369017681515372,0.14201097693925033,0.7791676442380442,0.4042295817105012
8,3.8500407366055924,0.4922362177337209,0.9158121352625138,0.5487070970270096,0.9006331639152356,0.5420355964054038,0.7834953249096431,0.029287895558236382,0.9522228554241337,0.6238771232437377,0.9548117738040713,0.7905941027821122,0.7452489833421587,0.3116552341019765,0.9633598407343346,0.49629071133439473,0.9206713022029072,0.28534969900002777,0.6684133131863997,0.027179760152127676,0.9627864354189906,0.6752280362144232,0.6059040906947062,0.06107698655042653,0.6110015080580726,0.07761818175633228,0.7718171607619495,0.20796534129097982,0.9706106152251954,0.8683285984327994,0.9764594918118599,0.8217415779614551,0.9337403431670315,0.5471001960420322,0.95756350587832,0.44178921880828287,0.881388570712278,0.05099932581838082,0.8230180852614323,0.3400482247891518,0.8207006787115632,0.28914386779065154,0.9048145830803332,0.4865163952571753,0.5936280613397323,0.2089022616437886,0.9449867190438458,0.7424694965056762,0.6085087424373139,0.09962656104537701,0.690883063569834,0.39825754260560764,0.6458268494160755,0.18558859109401035,0.8200146810060149,0.06334784473841831,0.8269748843842945,0.37854538770185164,0.45487068644257284,0.9087496770253446,0.5156878732381954,0.8889915459367524,0.4869536530495265,0.9498286377739676,0.5958018587852687,0.9474027389263424,0.7610651826402549,0.9546504815455065,0.47327431782532814,0.6159149963329874,0.061271229097598016,0.564818643840499,0.0708564909638629,0.7531082964965988,0.1821020207013105,0.9646485621133101,0.8473718619473158,0.9586358178650165,0.7839236063847818,0.920393226111887,0.5195929409266372,0.8357993872083743,0.3248950704833789,0.7968345302180614,0.24380755364792206,0.5724989503903413,0.19216024299439693,0.9436610576615425,0.7053524390883812,0.5951440349197739,0.08765840725728034,0.6926047544106242,0.3879176201354271,0.6110379603768868,0.17778692968744209,0.8041512943974342,0.4120821832696838
9,3.800374634022867,0.5042110755012298,0.9622037235521884,0.6769098618749924,0.9453182744875585,0.6375635671521748,0.8440973257444463,0.03972697578493662,0.9592131525186566,0.6658354180531141,0.9715927734199666,0.8412156031114586,0.8921803256760126,0.6090619260184698,0.9862912510654543,0.6408828303897087,0.9464462186021596,0.3549234624582553,0.7622806882120496,0.033858758986337945,0.9772321958530921,0.7122049706175496,0.6559857833426017,0.09209090814535718,0.688125356510362,0.10112657981690398,0.7933000388162376,0.23000894837477667,0.9722326459266282,0.8833647886396316,0.9728171321555527,0.8008500118304549,0.950534272148531,0.6273350933133446,0.9057473674576277,0.42647183010054307,0.9427542957343896,0.08850971002249518,0.8540103597765715,0.4186636028621349,0.7602217889639321,0.33646328062248654,0.9710920292767128,0.7305997640653386,0.574968956656506,0.22196406608975783,0.9678917543741759,0.8297684680766003,0.6338265981123123,0.11800807199084831,0.6901238026545957,0.40596851572969206,0.6157658735994711,0.18602844242972397,0.8092848307831026,0.06331206099162184,0.8520569931637368,0.4360265747240263,0.4712677945889543,0.956164705329669,0.6382885454330416,0.9267630843197199,0.5904506604880653,0.9545990159968124,0.6254088230625732,0.965603883403745,0.8150033520060257,0.9825856901918377,0.6238843085514068,0.673625381431195,0.0899449376280983,0.6378822328430235,0.081291782351263,0.7614433228018803,0.19308635056401682,0.9648944413226334,0.8437806194860031,0.961812242791034,0.7721056790034273,0.9349596919137808,0.5735320856958309,0.8487342817121949,0.40344589020053717,0.7334932925755685,0.25578138873820955,0.5575358269915476,0.20165364367554145,0.9637124502361706,0.7944601610367371,0.6164685243215156,0.10535484578650244,0.6894801312230502,0.38863570693575666,0.5760773552713085,0.17174108678673794,0.8169908641487048,0.4537694370794319
10,3.773851294525928,0.44359146356612256,0.9602277815444795,0.6340604554543294,0.901287561032421,0.5553569603462376,0.7759460782522221,0.024055852956785553,0.9535488878418014,0.6999222886734828,0.9729022245468839,0.8371491906513511,0.8685816613804023,0.4085458604986479,0.9830470853050512,0.6082465786752221,0.9406047071752263,0.38402343345213186,0.6915929328776472,0.037437694857979154,0.9688416894649036,0.7199498154089101,0.6527850220326139,0.09310255267535573,0.6064865833278377,0.08847265829939296,0.771201986122088,0.23651124873973572,0.9734113797779655,0.8934804599813219,0.9804703449107718,0.8241841735939253,0.9455763855395072,0.6192687663823342,0.8986862124167266,0.39757837840417487,0.9121969888133851,0.08711201278366926,0.8271017802083735,0.37806189986782684,0.7713319247158296,0.29979174394905433,0.9627222723689649,0.6867638961261107,0.5573850506207103,0.19338437476326056,0.9680064811159362,0.8062598283816153,0.5708334458334459,0.08726189568633287,0.6760828703703342,0.39794636515253806,0.6113095392111286,0.1854037982342091,0.8102677645952705,0.07736270698081008,0.8337939496815528,0.41706277373987954,0.4047849742863531,0.9545981524171927,0.5680586991639295,0.8835522268225883,0.5007770814776148,0.9486450575384053,0.6722641013428985,0.9672307986441318,0.8087897825072331,0.9767763157317729,0.5880915963723206,0.669553194820876,0.10064874393924168,0.5576753532764855,0.06543799559109112,0.750771907640791,0.19289894464557947,0.9632284185295098,0.8440650571530927,0.9648215907590986,0.7777898792640553,0.9217344221347712,0.5620788927321844,0.8206515495167436,0.34282757870659025,0.7465417710897083,0.2232148624451515,0.5337234776562374,0.17489638801699142,0.9647796922743135,0.7498534785573812,0.5515235183213065,0.06374396668092155,0.6760236950777119,0.3978094288005979,0.5718138496147451,0.15792830505081198,0.8013136106592439,0.432843043469316
11,3.7336784332678934,0.4486348165262975,0.9482531042747775,0.6477336624488463,0.9124311077748583,0.6004913555593134,0.7845748466481881,0.035500716904578226,0.9534637427314029,0.688514806194601,0.948417661167919,0.794337095224435,0.751697165765622,0.3578817135343624,0.9821350073928968,0.5988053539245162,0.9383859088119817,0.3590698433650436,0.6809504695483471,0.03664061881898016,0.9642845038744166,0.7520246524623572,0.6714891015256353,0.09897473229177181,0.6169631741843531,0.08413321547196076,0.7727509919910147,0.18660854343769578,0.9752551282314776,0.8975464999922035,0.9766304872071343,0.7969455923145541,0.9469654304771913,0.6009842281572292,0.8231574158081629,0.3552917674102945,0.887827124395915,0.07471578930091792,0.8325973330943492,0.335102629870525,0.8242602361863842,0.3500256709708592,0.9551576239839508,0.6231897525878726,0.5978769314031788,0.2341647224401952,0.9639982957817331,0.8071838939332076,0.6127177466463181,0.10998188070155912,0.6773981893260472,0.40370601695759456,0.5998694037350335,0.19941815947930608,0.7595696654194876,0.06332113894534482,0.8281139924958437,0.4108257056555601,0.4110456883058806,0.9412776709584546,0.5867816736152738,0.8971072328679917,0.5571437353379437,0.9449531525781857,0.6529623022225537,0.9424475442483653,0.7642618423934684,0.9726434265376699,0.5776391683807353,0.6887007583156171,0.08503337883782891,0.568196396893441,0.06273357075724414,0.7471946871037569,0.1614308862178262,0.9656746806972565,0.856458657108762,0.9614677845693511,0.7533287717007653,0.9272114292832931,0.5256311518653586,0.828266269145934,0.3098896639210711,0.7827408847581694,0.2843615951964884,0.5641475404462196,0.1953284981290866,0.9555483076590539,0.7488651341277996,0.5886321106698176,0.08834705445184175,0.678440366972477,0.4033014839824493,0.557328917482639,0.16866249900656785,0.8062210645104274,0.4323422815140592
12,3.7025950186942835,0.40853643387741917,0.9428468560028557,0.6083651708191966,0.908069294535012,0.5461075301620757,0.7565500314493838,0.02036179405098358,0.9580748296178297,0.6857449053539767,0.9716134076843862,0.8402676752100707,0.7237521627362642,0.23074975243613927,0.9852470606577735,0.6019850549414054,0.9323694434920764,0.36529177448959427,0.6976188086935434,0.04360293982855414,0.9617275973905345,0.6890396431474826,0.6379461875363052,0.09066301454484987,0.6145537704179402,0.08524725138318401,0.7491110915554021,0.24084751561879242,0.9699288690390501,0.8828653367515883,0.9728466758625894,0.7475266561869138,0.9546889390864547,0.6521065111693318,0.9024522627001792,0.42859129440354643,0.8953183258756678,0.0670138761761853,0.8162776476479506,0.35301338171786734,0.8551381697056872,0.3265016683958482,0.9563673399486603,0.6443573009592238,0.5363338395031634,0.19742932005741254,0.9683013419085564,0.7965150149809794,0.6091970199113057,0.11343639873665667,0.6497295682076618,0.36815086133713504,0.5869731902451554,0.1681365440666447,0.823199149195242,0.07843587303721784,0.8272678844669124,0.40267977999862437,0.3665498993813818,0.9341395116287655,0.5677819578786674,0.8919066418674477,0.4458801581361093,0.9503460597505197,0.6452029566765006,0.9653602518121107,0.808626190805379,0.9782903270790743,0.6127035810653204,0.6536105680990885,0.09261871382406762,0.5521410750170437,0.046897106121447533,0.7224425907374586,0.18684677054473964,0.957901846600055,0.8318372711467221,0.9592588603535946,0.7253893516581974,0.9285567140532152,0.5360444246744664,0.8148093338496994,0.31367389499526327,0.836849814379849,0.2558243497374208,0.5106352171462721,0.17167586440673002,0.9608868540605681,0.7359643555041823,0.5867440941654608,0.08428143929790927,0.6452627197414338,0.35215940455345107,0.5465904669789279,0.15519938694937194,0.7997629415178102,0.42047817655421915
13,3.672404846153876,0.46428660157511614,0.9401575733839399,0.6603092440679061,0.9161181509726279,0.6371840862057395,0.8183916381185766,0.039426317559491594,0.9608708258564879,0.740384019098158,0.9667896079270635,0.8308668184603305,0.8029019153291617,0.3534760945391865,0.9828771142823256,0.6258127756694015,0.9479459673841596,0.37233743863100954,0.7074047378743699,0.043530630252628044,0.9798812618880837,0.7655282926380249,0.6733380116592343,0.13536749634238307,0.6838219547351408,0.10905703686575548,0.796108303206472,0.27936706235556014,0.9736877807120851,0.8920126544347744,0.981230068655653,0.830340600486723,0.955014237282994,0.6851572156192064,0.8880427477110227,0.456081956676557,0.9038360894677095,0.10525800044973396,0.8244826174858302,0.3873781481112781,0.7955329897015913,0.3197411680369962,0.9575511181504269,0.6865277482556601,0.559825870123829,0.2253811909463298,0.973364531447307,0.8580725134293617,0.5983005000862144,0.11663312150582364,0.6961299772888634,0.4390692650754321,0.614680738288668,0.24360944949530455,0.8533457280584466,0.11175265737423529,0.8426530391510476,0.4425801112067775,0.4052321681448908,0.9296385032767247,0.6087175327674219,0.8955711777966225,0.558203149406564,0.9543799680171923,0.6936870960129672,0.9588047135351375,0.8025003472615171,0.9717736100257591,0.5936441641835537,0.6911523836120317,0.11088656408638076,0.6086948873130489,0.0764547049000483,0.7635396891002962,0.19991631290520886,0.9603495904086254,0.8251745112841766,0.963019073269993,0.7965336513483995,0.9284867703804901,0.5778346570292672,0.822438414593784,0.32121545294464204,0.7508760297142086,0.21483491680687428,0.5278359318264343,0.18786776680506384,0.9640872597080226,0.770985990540826,0.579333106060686,0.08100920519857888,0.6876479385051021,0.4088960678550774,0.572221219991958,0.20533999879742595,0.8072139037297843,0.4463167827852219
14,3.6410144703932743,0.49355295520608183,0.9519980918130205,0.5983476470325236,0.9043053608164916,0.5950022545645662,0.8041897407685961,0.0346215378744816,0.9716275527697396,0.7499739621533956,0.9696948893845564,0.8375726476246325,0.7591986859325173,0.2590217555962552,0.9769384453536666,0.5840002635956468,0.9548115848202174,0.3985187394426286,0.7066233044444832,0.04113622210497497,0.9635048177606045,0.7267286197582621,0.6651698531308677,0.14376509693841966,0.6315088239572155,0.1102091912561749,0.7628573344609229,0.22259762806268896,0.9789101800875427,0.9104514159002977,0.9773936356915037,0.8674706416244229,0.9485249658792383,0.6288864865777318,0.9169469599014654,0.4112735631349891,0.9200754489013551,0.11722309712892755,0.8389518544790004,0.390083856686745,0.7816218068878217,0.3321408372133793,0.94479502741497,0.6218566233280887,0.491221275234877,0.19027804595940928,0.9661211954913815,0.8446022583659314,0.5203004756576185,0.09397248434840597,0.6628788379392815,0.40970528060667905,0.5831423217593179,0.21999877698657533,0.8287341967254805,0.11647150313921907,0.8289646913875465,0.4242929791483502,0.44160393530595515,0.9399836750992411,0.5451511779089596,0.883293901625014,0.5061121150159742,0.9592841187510479,0.6843472196648479,0.9642007717758768,0.8101773466558079,0.9717646202407859,0.5773706200126056,0.6763537141753311,0.1083181745653661,0.5672719350622928,0.07197671308767699,0.7249154097809412,0.1873954511081898,0.9652889053271756,0.8556340680963466,0.9546092877124096,0.8149906871531967,0.9298511939663316,0.5297659196323083,0.8268165573953846,0.3304392612472111,0.7527944167856059,0.2635914771114844,0.46848917357580894,0.15874947926592758,0.9574582107753761,0.7543606306745323,0.5164522880480269,0.07519651287738204,0.6598500269858878,0.39445048222526446,0.5388351065563972,0.18655596670128194,0.7920840729799408,0.43636573905579795
15,3.6096252632160066,0.5124841618841768,0.9487623944071286,0.6009428106779241,0.8566946108986415,0.5893961162386988,0.7900246786296148,0.04386937672282936,0.9645043173291039,0.7197056482902131,0.9559527991466474,0.7660568417258053,0.8043043176080328,0.38322821604634233,0.9836315834023482,0.6185248676867092,0.9439523907033717,0.4476989199609856,0.6303377634716536,0.03182643667827723,0.950166489808531,0.6676235118436771,0.6417200395548431,0.1303124888177121,0.6114781334820165,0.09903228359143967,0.7543949518966455,0.23498118757939884,0.9807163909244053,0.9179938524700346,0.9793761335390337,0.8109130160838651,0.9389202919057236,0.6085047580941199,0.9010333704238468,0.36002959196660733,0.9288345196581014,0.1296263057967786,0.8457251832051141,0.42811104466952604,0.7477439182581175,0.35235626629967404,0.9600754473027687,0.6420232429316675,0.5884902795265113,0.21953087773642171,0.9631497390474112,0.8218447773430413,0.5693849443849444,0.10390066218278521,0.6406154435924792,0.35829359460768406,0.5548216465179943,0.1413427625204276,0.8403135030575796,0.09807346051683881,0.8250046400623189,0.41947195996590675,0.45896996347916824,0.9399735244672177,0.5393535444431046,0.8346064311691026,0.5043549163255161,0.9500321811229319,0.6656909246644187,0.9491869615078206,0.7298985477663933,0.9766309443308662,0.587830035932477,0.6295324464704936,0.08220079025406392,0.5574773817894787,0.0665648281631212,0.7156357051286543,0.16164321109063806,0.9669006195819504,0.862090297582472,0.9561522348321847,0.7630580942018937,0.9161366664567197,0.5034672811821687,0.8283382649338475,0.36238467369036453,0.7152133601555387,0.2355649428092536,0.5496439758709554,0.17713796166329293,0.9510090500743423,0.7154267574286531,0.5475061400555375,0.08173346014111156,0.6324666035735278,0.3291122515125614,0.5202907071519394,0.12694699826239617,0.7853740665929505,0.4163588620618834
16,3.573863353815965,0.5299247223671462,0.958489585960111,0.6776628404291336,0.9152208428968553,0.668930449656875,0.8432536262966859,0.03957468542367238,0.969947505086843,0.7663440743583044,0.9616898697978505,0.8053133743240538,0.8019875305274138,0.5134327407669188,0.9773120522872184,0.6083771661175362,0.9533872602321151,0.4884208146528056,0.7419446036515353,0.061460595807491414,0.9713585876480828,0.743979606715826,0.7144703673400341,0.18104786977507675,0.7007379983914264,0.14873859268699818,0.8072300408160855,0.2904836402352895,0.9794117968176976,0.9083007473959133,0.981565721546568,0.8092186710708223,0.963832373808411,0.6782442670110429,0.89809499612282,0.40972823012896087,0.9308728211451136,0.14692331093299657,0.8464715504579463,0.4714632312871299,0.8286336372939591,0.4169712753434297,0.9458078275656076,0.6641466061028237,0.6200003846592523,0.2544863967891461,0.9709972278453959,0.8163234549832331,0.6255440719726434,0.11322071516683538,0.7062170641793324,0.43341317990613576,0.6453107689576105,0.23033063485480526,0.8851801216866588,0.12034224065868168,0.8572211198144915,0.46173627454007177,0.46791384064992175,0.9492993547218055,0.5629172188754265,0.8908013663324472,0.5760586516954782,0.9535385713744854,0.6800022335153422,0.9556569815496625,0.7730734525080392,0.9734855062739928,0.6004723625978925,0.7132694740433079,0.12621800996474797,0.6465440271760163,0.09891161349018684,0.771475757809271,0.2039747149491607,0.965984654591111,0.846106215293025,0.9648466155016995,0.7829511690500446,0.9401035966706811,0.5382840447802285,0.8231108191123423,0.3664646988213465,0.7963273058293343,0.2921119224486512,0.577174598941943,0.19388681752805803,0.9565028021324931,0.7154759919708702,0.6004434279329341,0.0916158709636387,0.6997485618279391,0.4015067659397324,0.6093419694186943,0.19138543488293697,0.8215364106244534,0.4467453994041559
17,3.5479332127099257,0.5389928200541602,0.9679759655188641,0.7093646653580263,0.918397552798527,0.6569885654821971,0.8630507248746352,0.0635681742981565,0.9715798412667926,0.7596737960339885,0.9715983958594154,0.8586613591131015,0.8679023763184005,0.4828424128569315,0.9868544079134741,0.689545943026446,0.9543839010837734,0.43437834895076494,0.7406401347245781,0.06363602071950808,0.9735763977305371,0.6630600519414968,0.7186063934690385,0.1575302828099275,0.7550364202965032,0.17269707665474293,0.7975097372672041,0.2882398701929943,0.9782179575964814,0.8873076924965406,0.9850240547449012,0.8601722413183687,0.9646326362231794,0.6911271630045713,0.9458248413023769,0.49389185507691274,0.9359953024760508,0.12738449208443672,0.8477971731659336,0.4264301394070712,0.897225762891542,0.4145976928372064,0.9722154936059172,0.7520491690026935,0.5662529224039414,0.24636177280045815,0.9749626093952266,0.8729406094549418,0.6219121040549612,0.15170693698269314,0.7212470730340327,0.4621116563928097,0.6423064440254385,0.23616260986876147,0.8902386337801858,0.13305227017054705,0.8678135280674782,0.47242529141986284,0.46746664679138406,0.9493424739355258,0.5874037660470064,0.8851210624707528,0.5221424253895397,0.9567929212346734,0.677472537467684,0.966783728762703,0.8278652845456288,0.9801836634996313,0.6453772659180249,0.7007502444226701,0.11449487476851333,0.664834654927922,0.11497908214523002,0.7574888614121488,0.20787313216826075,0.9615538717286833,0.8049645823032542,0.9638588741908054,0.796647944226182,0.9392154686173875,0.5609154309263492,0.8167128948735956,0.3155219741827899,0.8617892209198219,0.3076731697430482,0.5274039528362786,0.189654113780926,0.9593853815367431,0.7620715727237645,0.6001537080798943,0.10847316809789183,0.705826326568841,0.42261555751220314,0.6012393362096135,0.1977374918326985,0.8221353692348717,0.4535490763210553
18,3.5110222748242763,0.4872922411865544,0.9405286510282127,0.6513632620144831,0.9274214355234728,0.6783444649005685,0.7980503305551442,0.047851060223818104,0.9692871860593323,0.7615702278818453,0.9448689918005336,0.7714795699657202,0.7572120955177338,0.37782303681005225,0.9681658025969173,0.613428743454824,0.9604234640131685,0.4890794385474864,0.6060908773372083,0.04334849243835024,0.967447470415153,0.7433564143566076,0.6569299140548841,0.18503490346415757,0.6496449357988334,0.11686578698614065,0.75087153891623,0.18579005782002822,0.9801231139541339,0.9183094887138921,0.9758520055530231,0.7855460881790371,0.940434819308959,0.5921404324319371,0.8860989835318733,0.4124455693393534,0.9039965135053813,0.13307584450762167,0.8524532751025133,0.3725430989754665,0.837562653738888,0.40553258587862734,0.9271814091833182,0.6052345358837162,0.5629909582711803,0.22640691516969472,0.9608797676812645,0.8016725287077555,0.5846387453530311,0.11811342367661909,0.6336969491206258,0.34483477794533735,0.562351831612533,0.1534663620943234,0.8334815562637032,0.1087812496660497,0.8273587139184166,0.4312384577790191,0.41417604531564434,0.9280190999661087,0.5311946770445896,0.8923952624940318,0.5607776065312169,0.947651499171584,0.6537749217683781,0.9351591230251414,0.7335331370374879,0.9552416147232506,0.5407687459733693,0.6409838570731374,0.09418510914183252,0.563452092429866,0.06765781029305325,0.7169903745788002,0.14065749850996367,0.962043288788991,0.8420792851159005,0.9459752608338735,0.7425297462191942,0.9105578756053521,0.46628972517728184,0.818789740343434,0.28854759649437883,0.781524332910022,0.29425771373076975,0.5173760830206569,0.15447558690759727,0.9442134191542063,0.6565843965329754,0.5544378678448255,0.07056248767844772,0.6276914362854961,0.3073611167775099,0.5284433854613821,0.12242922410132293,0.7872747563172311,0.4037592436130705
19,3.4870644917722307,0.5381729646468411,0.9643494880530395,0.7573708671554291,0.940243128634752,0.7056125961589718,0.8517007672880244,0.053553433175434366,0.9769373424345494,0.7792376003777628,0.9792465510560385,0.8742650905120658,0.8276199698247705,0.45781080006955444,0.9880007121468113,0.6514667953598531,0.9604258157697712,0.5240752734629893,0.7834083375627743,0.07737519385577392,0.9711503904320806,0.7336947821864339,0.7551986690223919,0.25126831195337795,0.7598994768381757,0.1693247881450658,0.8263698866433031,0.32419696604598136,0.9833395515059203,0.9223126902183834,0.9883433946779491,0.8786769760874634,0.9718698564863081,0.7362550027906848,0.9213199214690908,0.4693577851710069,0.9412252778329578,0.15355199673993208,0.8485038123894629,0.5194259012231902,0.8861223166483541,0.44797556039426883,0.9740591685678066,0.7336131120950341,0.5879789242512004,0.23522510807738428,0.9760075047201994,0.8834092321879012,0.6395033984319699,0.1788433482631769,0.7177421527439287,0.4786951823152882,0.6536480139818255,0.25113266083856867,0.8782311507057288,0.15977977760923215,0.8723127770414513,0.4965743271285263,0.4575538495937989,0.943112838116714,0.6378068114743644,0.913846230589979,0.5832155260019657,0.9601864521979616,0.6505128657894973,0.9727378452069971,0.842302814021232,0.9775768451204765,0.6117918884437813,0.7399786705236214,0.13706439876062157,0.6577275677781454,0.08718189383230232,0.7746975418047314,0.20298005681039544,0.965999233205144,0.8497272635948814,0.9721337224108347,0.800332558982396,0.9491568655630414,0.550879130640955,0.8202460144577434,0.3779053897619767,0.8397663546150302,0.2837125863736286,0.5478858402929073,0.1827928210917128,0.9591650159136585,0.7667109606654888,0.6159669237380652,0.10842721630314345,0.7046091807191283,0.4332210124323314,0.6036107458404425,0.20139236417382056,0.8288002160052569,0.46155319773080516
20,3.440595688006854,0.572855332786763,0.9338397864754714,0.6682857651080384,0.9550859644885451,0.7455265168269751,0.866685869705299,0.056733935435373944,0.9679898418430085,0.7400181043757335,0.9471579402086757,0.8238359550600366,0.8110343906562159,0.4476967165811323,0.976225308020219,0.6274990948132471,0.9625266063463497,0.5097543097303899,0.7597585905894779,0.07727556653459576,0.976817206016016,0.7981484282133517,0.7515847191572641,0.24905122249601497,0.8077791053830722,0.21355263858066353,0.8514788912724717,0.3500805535452608,0.9823801030182264,0.9133518663126605,0.9858896469926325,0.8694583341446517,0.9593749229773831,0.7426172825768504,0.9746751462796089,0.5767666431577712,0.9054185625959539,0.1252072374074103,0.849766551632464,0.485693327730788,0.8686887780156625,0.42686808486933847,0.9502704584872332,0.6543808091491036,0.6481431200785421,0.2964425161828231,0.9765820950685,0.8984705203792871,0.642555455055455,0.18260093361474997,0.751377471650375,0.4890329646817748,0.6588757280473214,0.25965649865762647,0.891832698183948,0.16881597522283348,0.8745849984535329,0.49617858523661035,0.4832674964597153,0.913050860538705,0.5338845379836346,0.9150447407365178,0.5773046767260251,0.9445702242582567,0.6182306546185339,0.9396722182500589,0.7951704610991696,0.9630263299838712,0.5640842896341844,0.7137482303906297,0.12225771367849168,0.7117101728024655,0.10088626583935105,0.7932856732540788,0.23378420466279237,0.9640992209130127,0.8201975324308806,0.9628856079761214,0.7962345567329416,0.9263674075012328,0.5358296057045183,0.8107939280825801,0.3350060677685303,0.8042758191823721,0.29555976914774773,0.6026240871863149,0.21366199046252266,0.9560635437148717,0.7479723698931153,0.6263794235929413,0.13118674606834946,0.7256960601493857,0.43123769982694626,0.6111705445732853,0.201785646791385,0.82691467183815,0.4474597105038399
21,3.4075668340457756,0.5633151971379593,0.9562567355997299,0.7480276201481628,0.9325045519735734,0.7038573866055471,0.8322014761013535,0.05777036740717717,0.9690706555254007,0.7485041039337469,0.9676967792546275,0.85303230565215,0.8241197622841702,0.42806024430839207,0.9833246630488167,0.6567437504506459,0.9720974578015075,0.5735990046795545,0.7997624758857543,0.09652734187699279,0.9768492398422867,0.7902963343121784,0.7256836362287011,0.2568777292603789,0.7397637337878087,0.17957444369374304,0.8262824117428712,0.3654418723818739,0.9877783434775551,0.94228962993031,0.9869631109799194,0.8457088597808494,0.9695876274000453,0.7425585123421504,0.9414299757373463,0.49319528475370805,0.9096409419417879,0.15891867062700943,0.8505328406441761,0.5120349873111718,0.7993510018367993,0.4306772155493335,0.9569733666645922,0.6892349799970273,0.5835743387550906,0.27645060226216156,0.9784939624381335,0.8891861013653171,0.6287799948514234,0.18394521684850232,0.7135502585950924,0.4958551769030116,0.6204082308672088,0.258626771253948,0.878372296440723,0.181138863548355,0.8633722173965369,0.5021530880438296,0.468510099127972,0.9263621141501487,0.5903840842667586,0.8940723571847661,0.544079559238036,0.9448920354875756,0.6303646463194029,0.958670108961462,0.8153466741575742,0.9673019594223032,0.5778578537355841,0.705307106256198,0.11083893001829792,0.6118333663923196,0.07200708471733334,0.7696324616279152,0.23682292679657002,0.9664803640519548,0.8515015675694892,0.9688257949158555,0.7852644012866964,0.9342792200132163,0.5499969490017919,0.8060172881193445,0.34226150008764455,0.7473647932330123,0.24876238640514417,0.5339444709210845,0.1827722929296244,0.9560294655095043,0.7400546582665471,0.6033188139182332,0.11666277405124834,0.6952388039712192,0.4225471605998251,0.571238466805047,0.17829021942307535,0.8089338328300645,0.4442119816039246
22,3.3689961433469877,0.5765074159648208,0.9550302707812854,0.7112524443188675,0.9124058534293836,0.665092578068398,0.8672913905628766,0.08814263317413298,0.9759598594032937,0.7972851179207167,0.9804641552608998,0.8877010889558126,0.8364006038959031,0.4640063980081861,0.9857974564935672,0.6685118523400485,0.9570929567073525,0.5901808389480517,0.7698658607893197,0.07652351480779784,0.9734356210710987,0.7364489576594622,0.72572181804355,0.2767969993514197,0.7197096022752714,0.17877167795006507,0.8203455659828073,0.3822685738026837,0.9882269349321198,0.9447940667148416,0.9789087063357794,0.8374270660749445,0.9751160790086568,0.7386780368615061,0.9300097144132673,0.44268359539067675,0.9194755365305785,0.24637371500600846,0.8412030247812822,0.5424659230014219,0.8008353339290923,0.4083079332834621,0.9696246053019747,0.7254265769223607,0.5760508465858137,0.2875266379708239,0.9809334339904745,0.9031603393581678,0.6473311026882456,0.19093805575463327,0.7014827214091447,0.477325351635149,0.6113498977506064,0.2522355608719686,0.9110442010026242,0.18249573549395637,0.8633745612354174,0.5075118988757616,0.47052247149139154,0.9263067470663835,0.5554923365600261,0.8656154909603997,0.5022263544090524,0.956261977777898,0.6485028724353935,0.9721896203914592,0.8473809684497012,0.9766708502056248,0.5964093727872322,0.6977378056359537,0.12612028364847627,0.6106990777307699,0.08250676744671712,0.7652631929217427,0.25089943889131927,0.9650900179113913,0.8342516139848167,0.9445341300687985,0.7734333670584117,0.9375580471587384,0.5316152391100997,0.794346552153102,0.36980065496218206,0.7318715980565139,0.26925165603359824,0.5191613650346969,0.18926746396214691,0.9614391139788493,0.7320672615165216,0.6087594607516673,0.09659994692777557,0.6832338659764686,0.40282193199597144,0.5673995022658856,0.18845077443231723,0.8046743564470191,0.4442832391450977
23,3.325013350416884,0.5660232043924375,0.9341603708736106,0.5800947849813471,0.9141419772581849,0.6306995351267842,0.8321444440383702,0.07109020210312111,0.9725366254747141,0.8139235203512106,0.9664718738305975,0.8437479387323237,0.7995515770126904,0.28541364373807776,0.9864772119452336,0.6370528599473961,0.9557755530533613,0.5665372584470604,0.6883415381270428,0.08662473082905131,0.963897787173964,0.6662633619238528,0.7013331522015009,0.28330027261905993,0.6986368118590476,0.13730566598879007,0.7707036199462329,0.31352380800127616,0.9879990312280168,0.9455901210057812,0.9869045919873375,0.8425309713417972,0.9448660463861008,0.696994877736762,0.9203461805100952,0.4149823547433562,0.9097629085619167,0.1987436876380551,0.8200837083436022,0.4990799580650451,0.8701500462794189,0.47441930284978157,0.974045649163183,0.7208907200771271,0.5529183471281385,0.2620851534224461,0.9687111161043026,0.8580786240483433,0.6382564596850311,0.17418579658274363,0.6769104252031212,0.4657894713635987,0.547230244597471,0.17344979730047824,0.8940722644584789,0.18471949195342469,0.8472751689789173,0.4750784411451145,0.4532309756279347,0.9163921801544237,0.4308653890890551,0.8741746064549232,0.4860312494597384,0.9487406093319849,0.6781617781903055,0.9576093389459231,0.8061252740842773,0.9795245587769684,0.5804059201272795,0.6616797446919791,0.10532294073931453,0.5834807390187651,0.06444595014593021,0.7096354038964042,0.19957030466543207,0.9630150439590026,0.8324175340755917,0.9631836968218086,0.780859289866615,0.8870159140994264,0.4728458024323668,0.7473411965034205,0.2849867526604412,0.7858479150979797,0.27993395923845316,0.5058540166323732,0.17624011603364825,0.9476201731599444,0.6867603327009102,0.6047257230770746,0.09878166021198674,0.6489450586904124,0.3749349232333666,0.5118646554441026,0.11739542465311992,0.7887028097087175,0.41422692231154623
24,3.279790034021894,0.5816749894412561,0.9418657635320293,0.6728813130939573,0.8904539682038992,0.689932395401988,0.8267640026698315,0.09693742745071095,0.9551237658862957,0.708683972091863,0.9533467380850582,0.8202215438746424,0.7458218674588174,0.3578203532159835,0.9668083756492101,0.5971352853936029,0.9636177374186481,0.6213706180348985,0.6496540220857222,0.06138847146193501,0.9572045072091968,0.7386170199364819,0.7148234385012652,0.3360932391814427,0.710824044822288,0.17916557303869368,0.7791693970864207,0.3351174953750235,0.9882941682877177,0.9417110303156939,0.9466041050604349,0.7744269610722304,0.9694057303755438,0.7243655871804443,0.9491200993686436,0.4971663695174416,0.9404707187907262,0.21501558639065377,0.847348650644414,0.5417051432547144,0.834093035211018,0.474495319192636,0.9082451365160238,0.5566858196355999,0.5997071937989351,0.30531146937605796,0.9838120555709551,0.8985733787414566,0.6179741179741179,0.17150240011827153,0.6843363440199963,0.47164884294991444,0.5733827777268932,0.21407312448393334,0.8792295361803951,0.18750199691700795,0.8436111591901665,0.4885017680258251,0.47365282850115525,0.9230151739365325,0.48997267396406124,0.8417090082450277,0.5062828408470799,0.9221833404546463,0.5803378702450037,0.9437879478772401,0.7817570732308285,0.9502643435308193,0.5112445099901539,0.6576271979880127,0.1062385233048937,0.590460094404227,0.07234616471720147,0.7107475113312364,0.1970580767684156,0.9605022359972137,0.8054162925941646,0.9096555270578803,0.7148585509474565,0.9261090334863162,0.502364712513171,0.7706876139854054,0.3451544968187838,0.7612842442019457,0.27491971574368695,0.5310635603263939,0.1820780252893388,0.9635088443862174,0.7560768162098617,0.5842530663337088,0.09386909788604911,0.6583781503743542,0.3760807226038509,0.5305271851940403,0.15788103538421738,0.7853202266172898,0.414107622169901
25,3.2453950444309374,0.55548930461355,0.9224274345590132,0.6703825002784024,0.9155954283834339,0.7098379460366968,0.8258804384832741,0.04612071808310522,0.9704085085445479,0.8004083607325856,0.9552886356014114,0.8036656411393593,0.719478294994554,0.36443163815173174,0.9383171260759708,0.6060293770580305,0.9745104860627344,0.6694106281267268,0.7261584326045829,0.08220986787011766,0.9438531301171433,0.6204097307768572,0.7178052549176629,0.3150559075307534,0.741101209703358,0.16215164525020617,0.7642215665525056,0.3516234152698612,0.9889670663638123,0.946994917892008,0.9715458574891153,0.8316383779403753,0.9705155670385488,0.7138386271660019,0.8604397441153177,0.3595160921169828,0.9145250923269808,0.17298767493263292,0.8079357431462798,0.5067345134411863,0.7972859205450907,0.41846009902279035,0.886196314245691,0.6327032919705927,0.5661577594940389,0.24990157939236374,0.9826059606573839,0.9079006577159374,0.5900970008112865,0.10669709414272645,0.702868589892723,0.46772467968573533,0.6029323846299517,0.17212928094814128,0.8834335058319429,0.1831481700857377,0.838538979747717,0.47674490491694993,0.43437430125959603,0.8899757055947599,0.49455974300785055,0.8644123487758355,0.4994945159762128,0.9409475492767813,0.6477058413131234,0.9467095925398653,0.7620285198273798,0.9219316109782378,0.5154744665054666,0.6504365709046357,0.09652980763904677,0.6128710276313636,0.07721771020633456,0.6895721100968848,0.18144968912314863,0.9587917822712346,0.8048644747312131,0.9355566263310341,0.7706054779270192,0.9175045698272738,0.4748691235685635,0.7007396639917585,0.2877049449827034,0.7327122269548181,0.24887635131463867,0.5137821155339708,0.14971006353201613,0.9547754789689223,0.7397001788225799,0.570068227530176,0.06569421287080485,0.6689489653036681,0.3512321195196239,0.5563770824956258,0.1253193334241181,0.779228514167047,0.40516869857176907
26,3.1904789140004053,0.5582966882810365,0.9345955974888871,0.6547466133395661,0.9219937520423434,0.7535979023762241,0.8514697537715217,0.1684507895436472,0.9691081810822154,0.8007480571548654,0.9471739210135202,0.7995909115317468,0.7487993520953726,0.3057422514031988,0.9631540694121882,0.5939140440246173,0.9666027884778037,0.6462943487286593,0.7400568256743465,0.10866070452401058,0.9723047635704258,0.7887873626079256,0.7075883322695316,0.3695054729229817,0.7064738554927021,0.20785529941031194,0.7987233996234973,0.396328238386945,0.9945680804685437,0.9745999838280682,0.9740335115164183,0.8161302942032109,0.9616549263933747,0.6596190399473855,0.8633743623502977,0.3817405421175583,0.9310658668768771,0.2728187474873782,0.8466645778654363,0.5668396919956911,0.7805145434312459,0.437099127421533,0.9184387134523021,0.5799512029295552,0.523965040735862,0.27280291117935623,0.9753328405473285,0.8913479263232698,0.6068476782762497,0.14827357008052947,0.6851826499881644,0.47117146954518097,0.5807476873686629,0.18633257330974778,0.9030921820753007,0.25372856387769743,0.8434639723466824,0.5002473200074393,0.4334053812327644,0.9143003110623433,0.4590701842375538,0.8646576686358767,0.5321603670551351,0.9386461933427442,0.6382981128963451,0.9359533168770062,0.7556335046754943,0.9471012547985719,0.5008569394464755,0.6442206750639373,0.10070844628389772,0.5762497444089946,0.06365777019675031,0.7197751966766377,0.19708588653721196,0.961397311681622,0.8310151783766593,0.9383363354846433,0.7562234848207312,0.8975166864376436,0.4065983043441206,0.7451423291103412,0.31181999309340735,0.6944280239601712,0.24964540919419123,0.4590984767106431,0.15428180370853312,0.9458650186155371,0.7017221236193657,0.5685714295766149,0.07382624824585865,0.6464483412689197,0.3448606480659117,0.5324963865372703,0.11766700764283854,0.7739002611249732,0.39972952291336006
27,3.1423697469486265,0.5621475242851109,0.943096129986151,0.678630258249574,0.9199282985140539,0.6791083832660928,0.8209552918637463,0.10647966826005038,0.9549336146030301,0.7347418325592202,0.9066232148209883,0.7081961134654651,0.7014203300358445,0.14055028629203947,0.9677693621989489,0.493414432371218,0.9588346844454987,0.6224423770695867,0.6393609459538563,0.08403606946539653,0.972820363182939,0.6618976478614587,0.6963519267182243,0.3096346132336015,0.7699543720748327,0.19846824729400125,0.7888856511276263,0.36481154796824145,0.9925025984167732,0.9653537556353162,0.9671688698967901,0.7016001849402498,0.9434355792517083,0.6643728439549665,0.8942269763116413,0.38713783126035933,0.9188320313056217,0.3429479146594867,0.8175047240553449,0.5087973050805498,0.8047970007677558,0.21804887970156311,0.9125530072570864,0.4212881527418238,0.5500034529877065,0.30259019044248947,0.9661624126541475,0.876751995960902,0.5603388460531318,0.19599690890162166,0.7000415892509274,0.5017891969892677,0.5847723721834911,0.15464615735186588,0.8715508305750254,0.20888821117519638,0.8342527583886254,0.4530600372648742,0.42356711634493555,0.913656375100248,0.505724516397496,0.859737612861388,0.4073624892845552,0.9106066096601059,0.6013446562656853,0.8967553903355312,0.6655995054733559,0.958118345914647,0.44471029716902566,0.6102772670505326,0.07888889358358259,0.6259962950139741,0.0657188520427082,0.6946608335026306,0.15592174000258624,0.9584333532348791,0.8127766411561766,0.9354037791286777,0.6570024463863233,0.8512037097288864,0.4044643312942102,0.7009481379245279,0.23654587650999712,0.7396320562816782,0.18786256909545543,0.47787616686335027,0.17484952061644754,0.9365427249278364,0.6783063739097719,0.517655935949924,0.08122044346298629,0.6457665304691361,0.3429951778768169,0.5271805209906866,0.1020538205938301,0.7644695358299244,0.3668526750622783
28,3.1000857812177025,0.5754391195249807,0.9468456440973877,0.7137600163418398,0.8721853461709264,0.7278754347540267,0.834151001282981,0.17220350252047006,0.9196694297790885,0.6873593211020999,0.9019596295535162,0.7116906027261145,0.7319394043961767,0.22950963669472724,0.9577338166052157,0.5689845771602211,0.9622261694403675,0.6703799109704197,0.6643272551604004,0.08793488172703466,0.9573799456467073,0.675403873478358,0.716856683356882,0.36791072413081766,0.7252670995480904,0.19989261738774644,0.8158573001461882,0.4080373861962785,0.9935251245996918,0.9700673520300277,0.9697060902781792,0.7529893911513084,0.9403009905798918,0.6558002339883057,0.8724373281216513,0.2741400436587045,0.9159290506748546,0.3286654508312187,0.7991406850359527,0.47318442221700285,0.8616950264561084,0.4352282690646399,0.9067060001319811,0.5336259325819144,0.6585314380665057,0.33633024005501805,0.9754706433003969,0.8801397578723987,0.6290676737105309,0.2131292459901181,0.7222008100803288,0.53873427730866,0.613512857163097,0.1722380907176143,0.853810626582254,0.19195066494633628,0.8414234470357539,0.48063577250383044,0.42863531340836253,0.9016695692440884,0.47901321811400366,0.7989690746138186,0.4445977484797593,0.866930245387823,0.5454477811378123,0.8961208950038114,0.6767671955723561,0.9415580656789305,0.47255143655380405,0.6240556029962425,0.07127846246941617,0.5819183832269073,0.07055647095076129,0.7129818840325891,0.16659141077924525,0.9598776603684127,0.8261567658321541,0.932339229522523,0.6933465816390743,0.8472565899292943,0.40673123472011824,0.660159623316516,0.23869872670351833,0.7757232817492874,0.2579573499158892,0.5772698675663681,0.19454563335234473,0.9440324643915765,0.6706292214645052,0.5783242758498889,0.09162504854881388,0.6710879695444347,0.3724871459955976,0.554746242542139,0.10888218838883984,0.7680567180535918,0.37710353447877853
29,3.044714190803496,0.5759111574867705,0.9478485755938871,0.7616915878409282,0.9575309435792505,0.8024962805409874,0.8739252870357369,0.15081424055524517,0.9621431394128074,0.7903361053199027,0.9075148000042035,0.7233288402937534,0.7503727522718274,0.36405295810695887,0.9745819675062435,0.6261872285263436,0.980270105965113,0.6896118669615027,0.6869167793981522,0.12489045108725752,0.962347658087159,0.7550351009486364,0.6749856770783125,0.296716077315063,0.7399718405086942,0.27334234463083285,0.7972869405499066,0.2447328182848879,0.9931624075492338,0.9688416107217557,0.98168429426976,0.828083706193314,0.9564101034878973,0.6971594683486716,0.9275013138565722,0.5097786716712703,0.9327591603934585,0.21268305612782507,0.903904029553958,0.5563999280601054,0.8607202951467154,0.34397777673282487,0.9242663529924129,0.6000608840249776,0.6128581479551559,0.3083301641146828,0.9742573327584164,0.8929614024934036,0.6238938381795525,0.23655089824715192,0.6532586623842752,0.4255834428133621,0.5796584557852772,0.16637725712356274,0.9027423425645136,0.24344779698203076,0.8534360445877219,0.5034619245950829,0.4276663933815309,0.8966796527644953,0.5458167258933326,0.9002235255272804,0.4907669792042151,0.9278113410964657,0.6355685697680934,0.8970254860998343,0.6834567727100282,0.9662138665459843,0.5226408915182762,0.5710297391228549,0.06429283443234729,0.5690263984078656,0.06516521794195904,0.721818146791176,0.13593056952726237,0.9533910368412734,0.7960184946239058,0.9473106497944291,0.7543719862836676,0.8740233549230776,0.41148619820079607,0.8144610530368337,0.31764890308891497,0.766870455490498,0.22597651701541369,0.5214711366799807,0.1518777931188663,0.9288455197876038,0.647027670949391,0.5732662280937841,0.10374254423059875,0.6035261411604421,0.286494698220557,0.5115353684645229,0.11664640200191412,0.7746960611460223,0.3863849871516411
