epoch,train_loss,train_accuracy,train_1st degree av block_rocauc,train_1st degree av block_prauc,train_anterior myocardial infarction_rocauc,train_anterior myocardial infarction_prauc,train_atrial fibrillation_rocauc,train_atrial fibrillation_prauc,train_bundle branch block_rocauc,train_bundle branch block_prauc,train_early repolarization_rocauc,train_early repolarization_prauc,train_incomplete right bundle branch block_rocauc,train_incomplete right bundle branch block_prauc,train_inferior ischaemia_rocauc,train_inferior ischaemia_prauc,train_left atrial enlargement_rocauc,train_left atrial enlargement_prauc,train_left bundle branch block_rocauc,train_left bundle branch block_prauc,train_low qrs voltages_rocauc,train_low qrs voltages_prauc,train_nonspecific intraventricular conduction disorder_rocauc,train_nonspecific intraventricular conduction disorder_prauc,train_nonspecific st t abnormality_rocauc,train_nonspecific st t abnormality_prauc,train_normal ecg_rocauc,train_normal ecg_prauc,train_pacing rhythm_rocauc,train_pacing rhythm_prauc,train_premature atrial contraction_rocauc,train_premature atrial contraction_prauc,train_premature ventricular contractions_rocauc,train_premature ventricular contractions_prauc,train_prolonged pr interval_rocauc,train_prolonged pr interval_prauc,train_prolonged qt interval_rocauc,train_prolonged qt interval_prauc,train_qwave abnormal_rocauc,train_qwave abnormal_prauc,train_right bundle branch block_rocauc,train_right bundle branch block_prauc,train_s t changes_rocauc,train_s t changes_prauc,train_sinus arrhythmia_rocauc,train_sinus arrhythmia_prauc,train_st depression_rocauc,train_st depression_prauc,train_st interval abnormal_rocauc,train_st interval abnormal_prauc,train_t wave abnormal_rocauc,train_t wave abnormal_prauc,train_t wave inversion_rocauc,train_t wave inversion_prauc,train_mean_rocaucs,train_mean_praucs,valid_accuracy,valid_1st degree av block_rocauc,valid_1st degree av block_prauc,valid_atrial fibrillation_rocauc,valid_atrial fibrillation_prauc,valid_incomplete right bundle branch block_rocauc,valid_incomplete right bundle branch block_prauc,valid_left atrial enlargement_rocauc,valid_left atrial enlargement_prauc,valid_low qrs voltages_rocauc,valid_low qrs voltages_prauc,valid_nonspecific intraventricular conduction disorder_rocauc,valid_nonspecific intraventricular conduction disorder_prauc,valid_nonspecific st t abnormality_rocauc,valid_nonspecific st t abnormality_prauc,valid_normal ecg_rocauc,valid_normal ecg_prauc,valid_pacing rhythm_rocauc,valid_pacing rhythm_prauc,valid_premature atrial contraction_rocauc,valid_premature atrial contraction_prauc,valid_premature ventricular contractions_rocauc,valid_premature ventricular contractions_prauc,valid_prolonged qt interval_rocauc,valid_prolonged qt interval_prauc,valid_qwave abnormal_rocauc,valid_qwave abnormal_prauc,valid_s t changes_rocauc,valid_s t changes_prauc,valid_sinus arrhythmia_rocauc,valid_sinus arrhythmia_prauc,valid_st depression_rocauc,valid_st depression_prauc,valid_st interval abnormal_rocauc,valid_st interval abnormal_prauc,valid_t wave abnormal_rocauc,valid_t wave abnormal_prauc,valid_t wave inversion_rocauc,valid_t wave inversion_prauc,valid_mean_rocaucs,valid_mean_praucs
0,5.1094754855501465,0.2182802911728901,0.8185386382630527,0.15108546821918617,0.743038907009201,0.012922864308998791,0.8856453960892179,0.1780467987705954,0.8714942643967544,0.3413483755191102,0.6089074057323864,0.007965371658256707,0.8035228570133329,0.10181416284452742,0.6899744561067659,0.022167842095613066,0.7480070192660224,0.058998259293720504,0.9660857241036702,0.5359779116474579,0.6209097927358448,0.03247520317907781,0.7199790087486334,0.047299878235139134,0.7161946563402823,0.0786929944347039,0.9299100502361206,0.7448886065446709,0.9513721508216765,0.7107298053693751,0.751104151920409,0.09324728120986062,0.933952913760135,0.24009238762815954,0.6737764655149766,0.01026421769042829,0.5984366946078985,0.04505402984102441,0.643189886890543,0.042383003492652636,0.8502069926543474,0.13928441345661807,0.8541494747790538,0.3889067870370059,0.8485499679604285,0.43444843287769785,0.7799874502323613,0.11236597921319026,0.5978083169823192,0.035325977237829,0.8159097897659856,0.4424778228140733,0.7850577223313204,0.1838521224070956,0.7771426982408746,0.19969676911638723,0.22061563687858687,0.8205024649750716,0.1618280061689485,0.8818286550248832,0.18625474739986783,0.8008895180288831,0.10493081445528349,0.7063048670990157,0.051057369943307854,0.5964740716240016,0.029850319672443053,0.7038647978218631,0.04460153119811604,0.6931596070262068,0.07294462654396444,0.9302684137397956,0.734056197207885,0.9584311650106714,0.6841749055126397,0.7467987457037322,0.08854537214812447,0.9290678849502378,0.22528437762188303,0.6041108217814198,0.042794481804077016,0.6366245490898589,0.04533575160814124,0.8540266627437835,0.37919165527743615,0.825878520659856,0.3732999052461799,0.7690958216856554,0.1218069905030346,0.5816846492987222,0.038356505747584396,0.8201989077880897,0.45413823298010964,0.777962637248645,0.19384049725137625,0.7703775137526523,0.21222590991002122
1,4.767309441352873,0.3032719683983007,0.8938477146443895,0.364374815291886,0.7288531548008444,0.01394206827818971,0.9091485150377314,0.2812572961710304,0.9088418267222633,0.4596829867664622,0.6810948370864399,0.011554869832451665,0.862219930205528,0.2561453872689103,0.7357432462422302,0.026900181191913862,0.782508357677039,0.07682056520638729,0.9672444492763386,0.5194905397622408,0.6488810404863206,0.047814247216368955,0.7628513307108453,0.06700396965810604,0.6848024385004767,0.09453306331303969,0.9374732001924715,0.7854663673643625,0.9652157442765505,0.7676413116399192,0.8439219387055457,0.2862176499921241,0.9569871968703246,0.40113274631993545,0.7030112629482896,0.011141570938986588,0.7079339365258979,0.08174034454022566,0.6598067034350812,0.051017883110873026,0.8977997032216554,0.20311664057308587,0.8781907942731759,0.43336138224333204,0.9038743996223136,0.5732847333982597,0.7873483525121565,0.12586087821406552,0.5528962934348802,0.029412171305937866,0.7998241907215637,0.4128609403033358,0.771808275184348,0.17058948950328862,0.8050818782044116,0.2520140038232584,0.29976894983975555,0.8879714530947213,0.3414966861205944,0.8950125836033307,0.2793993794890782,0.869349579677106,0.24308155244457416,0.7678914320709325,0.06469588161549479,0.6425940271745281,0.045765417994500575,0.7501423070809378,0.06309896187748945,0.6689678515979789,0.09612119485047951,0.9360819090372047,0.7807372763304204,0.9721367929099054,0.770839425451992,0.8488972318487145,0.26131465696901135,0.9519048783754668,0.38995358521885626,0.7051826180933174,0.0822004442730683,0.6662921318525696,0.0587413990362846,0.8829605388498074,0.4205814060883811,0.8780847145488029,0.5213852447110463,0.7761622014667381,0.1335091652293059,0.5674374037967189,0.036124773816639914,0.805598902548521,0.41212767126556743,0.7666621341830104,0.17686592110274632,0.802070036411069,0.2725284233623964
2,4.605755172922923,0.3446870885195399,0.9298387872281649,0.5491021390946353,0.7654314646713125,0.018513713036267025,0.921985404846728,0.3684233796362417,0.9042695820214615,0.4633593306285403,0.8486082524657161,0.05390532595320876,0.885719135727219,0.30653077490201697,0.7498973677117728,0.027485302059590266,0.8379897158521217,0.08304139767327193,0.9711633988007166,0.6420237061452394,0.6705631726735427,0.056848188895417526,0.7273544075489261,0.09565193669153157,0.72981952844019,0.15181884489982628,0.9510053527277996,0.8217294977294476,0.9708123751060742,0.8337304917882159,0.870790974842501,0.36117953070903486,0.9703580270968067,0.5093043520862545,0.868997022419318,0.059563166880632276,0.7688630228727862,0.10741667310252832,0.6489016751999072,0.05628080115455292,0.9120002945182526,0.23366027097993125,0.8544036169453255,0.3670200390171545,0.9047464851041419,0.6306073000630158,0.6907402416109477,0.07230693316579426,0.6311194505267854,0.04980759035778416,0.8002247522323389,0.4175590309519944,0.7572440325843006,0.14871442876113675,0.8285710592990445,0.28790708255243325,0.34091078482522175,0.9321727669157094,0.543996564654629,0.906943154559095,0.3319828313812551,0.8880412654709836,0.2835698571551616,0.8265926708047255,0.07825731164735719,0.6356109336420425,0.05075479808421185,0.7184973927787237,0.09577247310613357,0.7121871687938309,0.15352785173982786,0.9477246790712969,0.8053618798235659,0.9759171331529504,0.8535916412438624,0.8717615767480997,0.3245048179214768,0.9685139648374943,0.49365743147444785,0.77209149200514,0.10911555758241848,0.6647877724427216,0.06065018725539688,0.8615112103621995,0.36605822291930734,0.8835233594203175,0.5737992712161886,0.6674867425589313,0.06475232534409484,0.6334512231580909,0.058506443385252065,0.8024022363961083,0.4177348701675774,0.751557849343848,0.15481519523928097,0.811619715392753,0.306337343754813
3,4.5045853459533856,0.3929343370351047,0.9394773107950751,0.5838990176122468,0.797487248414934,0.021063427535780718,0.9458837090458388,0.5145772859540891,0.8704684782080819,0.3815216217879035,0.8555065355556006,0.08471176833979319,0.9021866201167014,0.351575759412665,0.7885096222192632,0.04149808259320835,0.8622656795146241,0.10479983880041187,0.9773089737961566,0.5860722754201033,0.7116331175513791,0.07493356750015223,0.7844813043092475,0.15175071885353236,0.7408061636482449,0.1146625918264435,0.9500663389311297,0.7806563079158944,0.9656875182493407,0.7924695536751285,0.9173439465081332,0.4618106229958207,0.9755375905587989,0.5453241450384453,0.8922984441014277,0.05804065232307591,0.7964937101935318,0.15329832810045466,0.7005315753786787,0.0619973252896855,0.8967738597747041,0.21136818221327985,0.8817579036350063,0.3803354276104387,0.9343145068803079,0.6660134478617193,0.6783729145171575,0.07932588224705471,0.6677945816357872,0.0510416126831381,0.8312133342132918,0.4278870143489056,0.8184740792681215,0.16180186688671933,0.8493336564238678,0.30163216633946505,0.3771334873667735,0.9449930704090619,0.5496081921892394,0.9330305025973,0.4347890726294198,0.9022726024381627,0.3142682726792488,0.8455678729498798,0.09288739724004917,0.6703204017861029,0.07147627935382546,0.7516040231949604,0.1577899390279685,0.7275825452064697,0.11964184985780853,0.9446457623670869,0.7525608901560489,0.9673621101330014,0.8154018008754489,0.9156011566051998,0.4408109212408301,0.9661317749553043,0.50791229198356,0.8061257052411224,0.1571703502879121,0.6997790927794011,0.06735769937333408,0.8802445049490225,0.3543114620962811,0.906852350205875,0.6065339760142426,0.6506238602297445,0.07731762003841652,0.6643308929028727,0.06582933681208132,0.8307356671995325,0.421874430615835,0.8156084018228995,0.16573357199882885,0.8328111735775263,0.3249092291826516
4,4.404358399610028,0.39365481602941543,0.9389572791836993,0.5201998507463844,0.7949619364027246,0.0215303874551374,0.945809144805114,0.5389866635926424,0.86646299269826,0.35639560111133595,0.8982583542693857,0.1294138328489588,0.8944414923201699,0.3460547857915713,0.7221431654486521,0.03296456120466966,0.8068567611110453,0.07343576553407245,0.9742386232239971,0.7153112882478605,0.7310108781935766,0.08563980327705986,0.8034050025196198,0.2058003021150273,0.7378978088242157,0.12954880669298124,0.9616601167094657,0.8452853667225845,0.9814146717856067,0.8292073599455817,0.9130887220335396,0.4258821177518527,0.9701850488870958,0.5078515853328576,0.8655280373362687,0.036773649828551885,0.7723474666005498,0.12262999086323684,0.6861381212876821,0.06146408249761508,0.8998048022013296,0.19792724879744505,0.8512810560655919,0.3972189904244029,0.9516877945746324,0.7186457549814798,0.6642087106066112,0.07879556404384257,0.6909334471268296,0.07096709902637541,0.8079921672733624,0.41405172059919826,0.7862557966381991,0.16563612854661353,0.8429603614664317,0.3087545503068977,0.382872475218007,0.9474383564143617,0.5041393888661792,0.9293545824648569,0.4901483921955287,0.8754596909976903,0.3050277348659755,0.779764257516091,0.0657741014208955,0.7036522844186026,0.08132942629405632,0.7792149996281301,0.20080648471005866,0.7328800673274884,0.13972630395144553,0.9575550753674082,0.8291228533908287,0.9797685333571856,0.8421411081307836,0.909331279681684,0.388833076847049,0.9612061560590973,0.46892240016596937,0.7734208130164322,0.13337449715664412,0.6836364689432837,0.06814919974499348,0.8490506703065879,0.3621554404137654,0.9247197683129255,0.6516380706458628,0.6407914082195352,0.07191476311264565,0.6844223476543452,0.07556600821187726,0.8056872210359686,0.41479979653377763,0.7810809893417212,0.15875472125005988,0.8262334194770208,0.3290696719951788
5,4.3366409417238385,0.37084792924399396,0.9568899511492344,0.6108617013983079,0.8041097601759735,0.02492315114376825,0.958857197199687,0.6604272250061707,0.869833882457582,0.3206205385378229,0.9313483309920643,0.21210516906410254,0.9256063135215981,0.4182846735519665,0.7961390511514692,0.03281767005061189,0.8431438138077761,0.08430342036256094,0.9814099902004856,0.7565920074751752,0.7692995847716796,0.08923042364823511,0.7907646306761901,0.17481075814234176,0.7698821787573455,0.16141602536320102,0.9587702829203083,0.8335842615546949,0.9859979081693173,0.8945307996077898,0.9217514544017392,0.5351763320480076,0.9657540571505479,0.6322376703475501,0.9078947537040348,0.07044116291192118,0.8421386623628531,0.18718788368261363,0.7681981920333971,0.11101855453877343,0.908965555843168,0.20629029470233298,0.8832187507525415,0.4490291943044684,0.9574308492103591,0.7597477780116617,0.7397257191905728,0.09436445870889724,0.8063536735498378,0.15552510257423194,0.8493784306654794,0.5110313265528768,0.8611640080795264,0.30580758978885825,0.8751548839574911,0.3573986605030362,0.3537303421033018,0.9577699939268035,0.5947157697429317,0.9456205379843294,0.5976772087462866,0.9147765435734949,0.3412515501406936,0.8223333796913047,0.07555464463955923,0.7595386481209071,0.09234413732734058,0.7680341109222325,0.19388428862466817,0.7512028325191499,0.16250727990334818,0.9557907820933296,0.8250763254513223,0.9846937837441642,0.8911990768172299,0.9128347880032515,0.48574672699090976,0.9474873629285394,0.5328290076768908,0.8390088756137618,0.19830868092491463,0.7562841904500862,0.1116878233553117,0.8807922616305849,0.4277652628037613,0.9320262370185822,0.6718317452520507,0.7377508669381179,0.0975615591367438,0.7980499943286595,0.1552182789825095,0.8493062114204779,0.5106925714658017,0.8510672597211261,0.2950358261415021,0.8612825610857319,0.3821519875854619
6,4.270677286243886,0.4159399766465429,0.9422419773894738,0.5988095207968699,0.7922182892176891,0.027189450905248623,0.954509229349572,0.6313671665868519,0.8722346406703733,0.3257434829892871,0.940726359489708,0.27302630274946266,0.9171220647064582,0.4259184066641034,0.6661036203370816,0.024020315089485073,0.8352659804435614,0.1334103082902146,0.9684366766868948,0.699090897237382,0.7738955357218009,0.10541208712492957,0.7973463910840615,0.24979699272382744,0.7594120956330332,0.19192084332035714,0.967666528564784,0.8668903246271957,0.9816191784603032,0.8666955171922024,0.9089368057142907,0.5088987479696792,0.9784108890598249,0.6420447407904857,0.9030295671348225,0.08392637264002797,0.8145772999318635,0.1750796784484835,0.7010119559380096,0.0755998927670936,0.9159621388664154,0.2745379049861823,0.8747532504486919,0.44954533981187095,0.9539177304714898,0.7451584180903446,0.688209309332878,0.08337316956503851,0.7209050663495881,0.10202051214544021,0.804875773201934,0.4428218893802747,0.7747550044300123,0.16621759810151,0.8541593599474854,0.35263522619207105,0.39084743236192887,0.9481095454835041,0.5631210552839675,0.9372945985378506,0.5605567113252802,0.9016040691114032,0.368503675512894,0.8161099745275147,0.11038231696106247,0.7347866454284064,0.08763517119172957,0.7690104517320145,0.2405383789260842,0.7394553769270024,0.18010170819615348,0.9622882356841083,0.8485101930986978,0.9805874621406936,0.8518968432872573,0.8956175394686176,0.47352369944676337,0.9724481268598916,0.5469611368805368,0.8212870065439569,0.18169463826046484,0.6956472793660582,0.07969981633434983,0.8687880381001991,0.4134659534807895,0.9260122838103269,0.6678213264248962,0.66739134725426,0.07727007604022583,0.7218199663149655,0.1020572658113135,0.7981321643273404,0.4294334860053185,0.7701762441917958,0.17707076018289095,0.8382403345163109,0.3663286427710883
7,4.227377415965031,0.3973317433107252,0.950946793928098,0.6004190700079981,0.7853838142145803,0.023305853050020357,0.9443186751287762,0.6205815172133238,0.8722167552153985,0.2628017303103421,0.9283151723463208,0.1929963709655196,0.9365496284180568,0.45367040429163713,0.7205441151591523,0.03543809313429636,0.8693189643050973,0.15336114026344294,0.9752939437174696,0.6868321188079721,0.7362233194564602,0.10708166214655704,0.8461407264875942,0.2796614782647737,0.7665207228857945,0.2089181246883451,0.9664180720106021,0.8561667976753858,0.98805603460075,0.8873231865347917,0.9279555160645203,0.5740901931983888,0.9807878201403109,0.6604242862447642,0.8780062276951099,0.07311127659883775,0.7699482428528951,0.16876485131716362,0.6741417730075575,0.0723570177821693,0.9388705295643002,0.38194061102136384,0.8837928869055628,0.47634140716954665,0.9613181515172884,0.7433684953223091,0.680306746047045,0.09075646343081308,0.6983003065104157,0.09099688217953442,0.8190260642236696,0.4842107570176986,0.805562871278749,0.24834028311110318,0.8578563028339067,0.3628176950672346,0.37907132742043675,0.9535582945234622,0.575950214407511,0.9331253754266151,0.5471618724750802,0.9295357439890388,0.38758311524051897,0.8435200400630467,0.11403536759406703,0.7108413774694555,0.082370232405364,0.8087468178386726,0.26236389203027116,0.7484600393623515,0.19190904323199565,0.9613845844808915,0.8340691130446125,0.9872872238662085,0.891015657873802,0.9108721423579914,0.5201155384720931,0.9727316602316602,0.574652241408543,0.7687295235420762,0.1657297460747334,0.6682965508127395,0.07866326379017186,0.881466949307185,0.4378874895134508,0.9395395842776526,0.662919142428744,0.6616853295805958,0.08164424520660639,0.7090970641165514,0.10243430235685026,0.8090921688647715,0.4629302097180988,0.8014968911100506,0.25181521424107,0.8420772295379482,0.3802763106059781
8,4.1880284943511565,0.42093364140021367,0.948721872344592,0.6068492593710424,0.793949137317811,0.025379893235147638,0.9661413240560858,0.7253767933174956,0.8567409370962373,0.25849856319691283,0.9545220949958374,0.3166204539934949,0.948566172366936,0.5175469964247575,0.6320407004082776,0.022755753559719524,0.892985727558126,0.21120748927525532,0.9681367811629431,0.6941137483336343,0.7785118481254172,0.12158682572127118,0.8143325211768049,0.27269300309168343,0.7784068235543758,0.21392500974971637,0.9704508771025776,0.8755348594978385,0.9911307063407334,0.8981738646374687,0.9450959688184415,0.6135112496061366,0.9843104909950168,0.7469175899270076,0.9191693423457423,0.07554692265202866,0.8521423255133304,0.2556791312228547,0.6799075534147258,0.09559655414372877,0.9341254220457155,0.3530599797939914,0.8594956457055194,0.41625306573662735,0.9711832024646072,0.8160479092619413,0.6578596457731318,0.08707429388271096,0.7215729889983683,0.11890080397819763,0.8021892908638354,0.4782700507331924,0.7619843893365277,0.1879134505779673,0.8609105303800662,0.38480898134314706,0.3982261310278006,0.9489935525510786,0.5379111282707751,0.9529857783663506,0.6639126159021167,0.9328367827187759,0.4249471968716662,0.8768689582143886,0.15716923647413442,0.7545096486112441,0.09074332145641342,0.7831670288955075,0.2482921286416054,0.7627898032829933,0.19396498162809744,0.9633430019653443,0.8490696466540661,0.9859996968770887,0.8726174757848608,0.9333044538570144,0.5372060208868722,0.9799863292510351,0.6231937302214959,0.8563260022295406,0.25968866937733254,0.6766535819110595,0.10913384301697264,0.8568669346767599,0.37027636058323493,0.9495902050718,0.7249877304249437,0.6433622255270317,0.07719341377904732,0.7368312836601857,0.1304619676609438,0.7982097434631309,0.4603596924990109,0.7574354426470933,0.20092241913635436,0.850003181777759,0.39642376732999707
9,4.145795183547111,0.3309234553178803,0.9580326289544817,0.6016353712371388,0.7748263938501986,0.028186378423716282,0.9597412040844692,0.6017810245327526,0.8498746235432152,0.21305255178135593,0.9352083790972978,0.25137255781102197,0.9249932999821334,0.44733993472945077,0.6746344508706216,0.03891394247292383,0.8784630810129611,0.15628602075726966,0.9614703188174825,0.5636074103913145,0.6908314176409938,0.08221665117964208,0.8124766663113714,0.24302123005997672,0.7555281187508599,0.16902382567313953,0.9678921275381211,0.8707664162341511,0.9857991899573877,0.9053559900040519,0.9226196559756631,0.5842004747280582,0.9635171613430905,0.6138323637026408,0.8918299466316558,0.0609490659509838,0.7734910476517154,0.15317898513075018,0.6429126789073415,0.07903835942760848,0.9260279357978461,0.2995196034866151,0.8728942999485791,0.4187540539705944,0.9677619910682336,0.8037769038978521,0.6992837659583843,0.0882517508888972,0.6891710864278257,0.09578572376407238,0.8151285624972695,0.48009262068887554,0.7590744937716646,0.17855818923900788,0.8482109433227254,0.3472499000063023,0.31668778415443094,0.9591198955294934,0.5643685068461142,0.9470011073856801,0.5515501427184851,0.9098583959265637,0.36357932999836334,0.8638053123795302,0.12281352351602921,0.6482804843019663,0.0686281351315893,0.7757212453412964,0.2198304507395568,0.7404026350305979,0.1611844893039012,0.9612962867675069,0.8473568861562406,0.9830027554369567,0.8867860027409011,0.9009293130250003,0.5240395299377527,0.9562830849595555,0.5345234022464421,0.7826405376426439,0.14840014127931328,0.6390144136251136,0.07250654873606942,0.8603060491984214,0.3576602136769899,0.9429416693345335,0.7061661234006413,0.6882104718041867,0.0800814872956018,0.7036668042600147,0.0896199232899454,0.8142695948622588,0.4586198417636378,0.7532196320758061,0.18084089823664284,0.8331562994151118,0.36518713563232724
10,4.1080357475176035,0.44103252093115697,0.9443422805649485,0.5762667110470434,0.8049911140529263,0.033143411030732574,0.9662439374099298,0.7349382939442836,0.8450776629566524,0.31874105949473275,0.9404306396740807,0.23619782358143304,0.9307799106511905,0.5092230728771165,0.6803032846835059,0.02489637958324683,0.8988518378347835,0.24611814491590112,0.9771758869245464,0.7668461433035275,0.7342504232911533,0.11738050648268022,0.8352575453266492,0.3019426469845598,0.7899716385767561,0.2315218189358808,0.9688837278730812,0.8677696755865583,0.9883131792176507,0.8543890531534019,0.9295017131935762,0.5619583381890174,0.9676039197722025,0.5586949384378916,0.9102023199969074,0.0961154857929253,0.8185336073084046,0.24269957261792874,0.6126975635704648,0.05683760118336901,0.918293079562658,0.32278121857159514,0.8754032914931984,0.5034350090791727,0.9644814577907931,0.7942379029788957,0.6881596832097786,0.1102078021474173,0.6240331468485121,0.08555067167835533,0.7820218503610327,0.4460187811581513,0.7252252686238487,0.1426329568494565,0.8508088450295859,0.37463634690789527,0.406350152791235,0.9401127431159503,0.5280264885759381,0.9436112350870096,0.6385479572570759,0.9168977285653057,0.41695521630632804,0.8790114894572213,0.1891025832693243,0.6851767388825541,0.07808633573696801,0.7983322728154344,0.2669337054331311,0.7645699412677979,0.19604504561146166,0.9601604145218056,0.838744203052173,0.986759740308142,0.8490136328501012,0.9133560447239691,0.48231887695170855,0.9534897898868487,0.48995618196592544,0.8145826419204683,0.23117688176681606,0.5928575099481668,0.058433227735807454,0.8665771959906204,0.42754523657507826,0.9431677776615539,0.6975375456451607,0.6567006507870817,0.09048749482777005,0.6452732397308782,0.09229675501711762,0.7740637115675651,0.4145441756651298,0.7338337021733693,0.1543614466866539,0.8299228720216707,0.3757954205752457
11,4.085429738730111,0.3417306402325408,0.9461799890199425,0.6511804028683167,0.7963648714298845,0.03707919331555708,0.9643512702047147,0.732604745594997,0.8298170121041303,0.33122519161209396,0.9476364566046861,0.29373868189147057,0.9195387616271739,0.5070441022418715,0.6223277813478761,0.021176751861701572,0.8869633214932909,0.22716735619449951,0.9668440250844383,0.7379545404559407,0.7197853288173396,0.10197943803161352,0.8251320777460367,0.27204389202511675,0.7470126768491312,0.20159921827221355,0.9680423850163038,0.8700728047082015,0.9772169527250828,0.826604909259268,0.9337057743655821,0.5689613593122215,0.9772522907940093,0.6582419073587179,0.9146845496646832,0.0822047229006899,0.7707425895770784,0.1849381760755537,0.6075669965528744,0.05468506036569387,0.8891378119412673,0.30246625407077593,0.7993655232873569,0.27791702989242434,0.9549785791435702,0.7545791764178961,0.5267436516044977,0.06227702933446764,0.7106000818086539,0.10994692813298163,0.7436688918511233,0.3988951910614918,0.7145148295853874,0.1311957207933256,0.8330836338556197,0.3614530686172731,0.3160915256763807,0.933196118148485,0.5889822426709218,0.9415313582394462,0.6342098122271961,0.8951262266175523,0.40578152848730314,0.8568551240197728,0.15973139020593027,0.6669388181430449,0.061075380086173324,0.791344764241767,0.24345248126654018,0.7235446217194093,0.1733162857403247,0.958451322779969,0.8366589593103785,0.9782116742074702,0.8024252696267313,0.9073877087522639,0.4726979448024625,0.9719411153234684,0.598905806718073,0.7662916017802286,0.16467274391735298,0.6013762650364562,0.06230427587576805,0.7971003623039865,0.2514296928557074,0.9256027001983202,0.6285797651495142,0.5043198878690067,0.051621294265014564,0.7151512688796198,0.1155796784106248,0.7359227387666601,0.36178685471304656,0.7194650113956251,0.14318782079268105,0.8099872993906607,0.3555999593221971
12,4.050541499869927,0.430896126804303,0.9557557968759289,0.5767702784075387,0.8030768315825326,0.03680836787231773,0.9671107950418699,0.6941379704253681,0.8022666417691812,0.2488340701720914,0.9512057689361286,0.3834268570968159,0.9427626568908947,0.5190131243056681,0.6274799157842734,0.02734695357139552,0.843052598830188,0.21811246311720212,0.9673121343349286,0.7400991275791126,0.7681983253408448,0.14049326908738088,0.8220809381133377,0.2885835447465682,0.7883384749272826,0.2498874348219434,0.9727957332539087,0.8852897100633789,0.9747055297783619,0.8647729510442569,0.9275958699477107,0.5739569251893366,0.963640150777116,0.6050736544658649,0.9137701946758098,0.0791612343412883,0.8008857856712094,0.17529125110741967,0.6818151123777723,0.08137704691540595,0.9252819023477765,0.2923403106446977,0.8967169441213926,0.48778279770783206,0.9589666401032123,0.7950917915019898,0.7289161168971919,0.1207000803415975,0.6348112020480852,0.11384491153387057,0.8291939003489321,0.5035644342449968,0.7883021933952585,0.21531261741493884,0.8552322366988896,0.38142589145077993,0.39673548483267496,0.9505594736264156,0.5272735133443823,0.9499580665667792,0.5938001506698375,0.9235097534719835,0.41779633087347623,0.8221037247410052,0.14088278559457856,0.7234056072488619,0.10556420168989193,0.7772270754351486,0.2525593310468108,0.7581939475646915,0.20127939737507172,0.9612283450608904,0.8357575109979914,0.9762060937643642,0.8503812759406167,0.8986489040060468,0.4931356742121431,0.9403546241781535,0.49383880125035956,0.7954599703862552,0.15723185505085374,0.6712903820520225,0.07799716105425708,0.8807481693881669,0.41786278568039953,0.928273578396723,0.6952357252642357,0.6901824446950028,0.09414050454703665,0.6653327322881696,0.10657550182113906,0.813890299485455,0.4558899834403981,0.7783508354622322,0.20450294432346153,0.8371012646220194,0.3748266017987864
13,4.021546868797456,0.397803781272515,0.9350335608606406,0.5689924605029387,0.8163029324011521,0.030298523334380687,0.9635039027352066,0.714439741171817,0.8169427470157273,0.2593842543881092,0.9535804802770389,0.3529128927391105,0.8990852308939491,0.45778628325529774,0.6102901171313906,0.03329078108866131,0.871996870470461,0.20430039942746342,0.9485787191501689,0.6390518774373604,0.8225849181608845,0.17288823455476132,0.8133730984962083,0.278516314254574,0.8019455554026963,0.24258814702830273,0.9724206741405313,0.8823465749579906,0.9885580340441452,0.9002928901208717,0.9427988755852035,0.6015903118313085,0.9710002105531679,0.5521658459857828,0.8982756046628901,0.09442907004960023,0.8496878399249846,0.25258787933456706,0.7284788954587688,0.08710814074272019,0.9028563414829666,0.3376624003029033,0.8817122996114407,0.46033797332440596,0.962541860868832,0.7880663851572209,0.7186939865454496,0.09302378563184757,0.6254735034432342,0.11026058076750503,0.8009761882028175,0.4903539752326748,0.7866424981142592,0.22140858907223554,0.8570513440628543,0.3779263196805542,0.3775061489155549,0.9302437186275536,0.5219335698557873,0.9352389312352442,0.6093725033014755,0.8657438463145356,0.3521273972128302,0.8575117602853699,0.131224845378998,0.7660112400300584,0.10632797312043754,0.7848630473596993,0.2535124028868589,0.7588722645669803,0.184572106875241,0.9621930819545556,0.8494431758704432,0.9826303117942142,0.8686018372211389,0.9139425476689627,0.5123456438331732,0.955995911878265,0.44383026924819097,0.8313765285542876,0.213675352565437,0.7138368435392796,0.09290759504517829,0.8690540385198189,0.3813279584343353,0.9330295663052103,0.6707701984206894,0.6925766475427014,0.08485556989792825,0.647158132176146,0.09121995313140756,0.7920988980057972,0.4492609613481871,0.787343426553639,0.23057964118749194,0.8410379338374904,0.3709415239386963
14,3.989968038541759,0.4275670169685225,0.9578582506040779,0.6472977545312122,0.8432998858458949,0.04314169783960024,0.9677582028502665,0.7599673945333593,0.84614778410049,0.2924563518480151,0.9588030177450348,0.3442054086576018,0.9484133148164586,0.5317893889676696,0.6756855714633995,0.035991079736385656,0.8757834172386287,0.24536492355540196,0.9803553941983959,0.8077373709042793,0.7996966158567915,0.17497189714854228,0.8221147144123928,0.3057372280515727,0.7885143951323651,0.2573421893067602,0.9705444042701789,0.8626242700811693,0.9946798609400236,0.9128568259890011,0.9506415943581151,0.6184650097017766,0.9834994796201803,0.7353477074518148,0.8835426567640376,0.07092343828979868,0.8381466089759305,0.24926215154850506,0.7207218457969041,0.1077983592945352,0.931105515225075,0.311234988724931,0.8449106582561432,0.4649384126136104,0.9773197489816422,0.8432969946635452,0.6968189349113332,0.12578759369494558,0.6521392542552618,0.10326949778319354,0.8221225600503111,0.5138777099633348,0.7744121799023286,0.2229891640673186,0.8655783025604484,0.40725672342107233,0.3843631214131326,0.9504022812424664,0.5744511858303163,0.9412252995640853,0.640533809251093,0.9264695515128554,0.4227029704168168,0.8484591464277522,0.16585582994020798,0.7513799066328943,0.11088417463389011,0.7823989838472349,0.26114648016149083,0.7533034325649012,0.19341341653238261,0.9577330490654684,0.799237829694792,0.990028498522897,0.8948229508122566,0.919154045265905,0.507111743250412,0.9739214812744226,0.5927023161723349,0.8193225430377915,0.1959923553148338,0.7057316776712398,0.11013777844356995,0.827031036597767,0.39966451070063774,0.9490337038762786,0.704350094404421,0.6546284266729658,0.09665044885274864,0.6669461409743247,0.0985245901523312,0.8035182248341266,0.4681587701647752,0.7727187572530586,0.22130036241491824,0.8417582203599177,0.39250745353390676
15,3.958316940659603,0.46761571141089664,0.9518480590825009,0.567661072539372,0.8471296575917501,0.046837291190917694,0.973074701142134,0.7558240108901167,0.882688129818528,0.2951046795004305,0.9523102418367855,0.3115894882400005,0.9481084449558532,0.5433591797620059,0.6441414363631568,0.030249655669687306,0.8860979701094777,0.24550121196605634,0.9761957159463364,0.7291329217815912,0.780920479395511,0.1808649139134895,0.843605160226057,0.35489950578598334,0.7756851944204237,0.26393145435835114,0.9747876012479261,0.8830856307693546,0.9922024559050305,0.9120616903098022,0.9439793225823324,0.609156363045473,0.984149000198547,0.7309206556285488,0.9022179462617277,0.11402375557183549,0.8012059851031881,0.20561198182808915,0.7284334107863519,0.12422473057792634,0.9374360950128596,0.3771491962123227,0.8869940352664033,0.5187409529128335,0.9748824444290289,0.8426347222841574,0.7394570592328227,0.1323681682807919,0.6341427600577904,0.11372601546712625,0.8231037142170873,0.5235439176274224,0.7926159078371916,0.2598229546449303,0.8683620357317999,0.41046254310610064,0.4254304240888425,0.9408774152321662,0.5174978939386752,0.9513395293092721,0.6454323498418341,0.925137891080643,0.4024006582285879,0.8572572489227872,0.15257482111522117,0.7192734309945136,0.10570785976581017,0.7976810143639007,0.27315108608179783,0.7361439920300713,0.20089480852415945,0.9647591580472877,0.8414487392705429,0.9865629588771532,0.8588093506871411,0.9073009811891214,0.48912093828994613,0.9674606329018094,0.5495641404460583,0.7935192276599186,0.17422422515341168,0.7032517738654032,0.11327736781894956,0.8719972861365469,0.42947589913884265,0.943911821978786,0.7046516613868937,0.7140054248443208,0.10629688922578608,0.6471103837763019,0.11373033141104087,0.8090560034916345,0.4740106859247803,0.7871128806710532,0.2590803464706924,0.8433557397564574,0.3900710554063248
16,3.926500836768265,0.4767583414076669,0.9428213240410809,0.626716459952211,0.8397539546519343,0.042596355572406305,0.9643628702477708,0.7232079335251222,0.8064848709791052,0.2509089592201872,0.9424039049044818,0.30998956138117706,0.9315396269628148,0.5032194008259598,0.6479264482538359,0.034388391640961656,0.8938622487933275,0.22711207821637802,0.955797243929399,0.6568775974750439,0.8038491564181692,0.19701468963825738,0.8713500251403927,0.3488657639432598,0.7764146702173655,0.23553149978057922,0.9787481090459846,0.9037527291936778,0.991243709680363,0.9030581657284305,0.9558152328324933,0.6639753198439542,0.9842815130687113,0.7093628545977513,0.9238390991520912,0.13273560092693892,0.8456853703277354,0.31898238578623117,0.6872698631622238,0.08542814391925159,0.929958121199558,0.3903930686772289,0.8967170415091346,0.5344437471569639,0.9796615062404309,0.8693754682399912,0.7821367490181104,0.16232621931132357,0.628691541311639,0.10587072701301958,0.8212781792164561,0.5093456566101796,0.7580154413931735,0.16253123537020298,0.866919531603761,0.4080003851364111,0.4216292762912723,0.9219299703127296,0.5507610953578056,0.9255185755997088,0.5919800366980844,0.9083595751315551,0.3720986186054826,0.8436142809390662,0.143599499763235,0.7362132646281419,0.10069275512740022,0.8142779574473877,0.2357393049890069,0.7305239774654598,0.1876093592111448,0.9664616411549827,0.8596170896894498,0.9861614452502877,0.8706351273344699,0.9192793679316589,0.5133413104761735,0.9752135781547546,0.5761578158658973,0.8233642235327154,0.24290559410864265,0.680596343447099,0.08255646056917237,0.8871027980285904,0.4545216827774042,0.9504770991358225,0.6971071350296103,0.7579916672436332,0.13149680737838512,0.6414393355605525,0.08659876139944848,0.8088344905811696,0.45169715686369016,0.7592061651924079,0.17202973398679056,0.8440297766704065,0.3853234392226997
17,3.8981274854487973,0.42331867531241457,0.9507561203330386,0.5749485781973261,0.8384427850821129,0.03995456300428057,0.9688817349484217,0.7244216395095177,0.7989398248003752,0.18993708608471924,0.9519038578329756,0.3555370993696905,0.9396781843799205,0.528916792587947,0.6319469772845253,0.03798406677926919,0.8521820961737345,0.2048279244484459,0.9776477284033729,0.8053188955325319,0.7400212679544874,0.1459828125549258,0.8680988924275796,0.34591636082398575,0.7506123236114932,0.21437173135902987,0.9788040261114285,0.9071512818542684,0.9701025755522708,0.8362833853025509,0.9403752032780176,0.6206036121894456,0.9762668560187634,0.6803537910943942,0.8474473135242309,0.05192897356278058,0.7180353419453099,0.11164697214665706,0.6334337078527004,0.0833336581763352,0.9256187355279064,0.295920731097001,0.8686734620881915,0.43444119081488286,0.9706027587973968,0.8559531059749269,0.6724706664671678,0.1234725818320768,0.5240366214905497,0.11412491248926274,0.7501677707364156,0.4296311549166521,0.6762082884940949,0.12403469996150808,0.8354367354275569,0.3783460616024774,0.3757173734814042,0.9377667028113105,0.5007780813057388,0.9473691639363184,0.5994562829832323,0.9169980680327537,0.3957743373069008,0.8097179117441822,0.1208495249810661,0.6678238907216076,0.0799637437303968,0.8208668603630909,0.2548563690011435,0.7228525150349836,0.163418874561948,0.963177362028329,0.8332586598567018,0.9682727211741292,0.831812240327573,0.8945369657296883,0.45833598945007303,0.9472063773534362,0.5438574689015612,0.7025490796762912,0.09284928612976977,0.6092878923591227,0.07714175919908677,0.8485755432349156,0.34361101456929244,0.9339448823972554,0.7109336912314946,0.6408286108219317,0.09960808009534423,0.5600526752551421,0.0898265361391198,0.733947006790534,0.3629041164461773,0.6772405705482416,0.1330376969710928,0.8054218315796454,0.35222493437830077
18,3.8649371092294196,0.4514173560905319,0.944670283558238,0.5714230148558922,0.8249494010771267,0.07156241478433494,0.9730964904121986,0.7905757146529236,0.7537326303685378,0.175996733216271,0.9644755034343738,0.37310594174231654,0.9410755571538667,0.6196538228883595,0.6666470150439444,0.04068706176996779,0.8771080794820342,0.24735616807009442,0.9608456755197171,0.6767624623795514,0.8018204138573664,0.20398030626297559,0.8569595917713625,0.3961653328654346,0.7568776911991224,0.26989103286890576,0.9789416176445545,0.9129943746457778,0.9936001558037466,0.9047966617205463,0.9632638285388903,0.6816661745587109,0.9828115317917125,0.7030374124758483,0.8727023920816559,0.06723572414757668,0.8475027893073289,0.35788619074941497,0.6989394153410611,0.08861417856135535,0.8977046998968479,0.32535437609906537,0.8659086595055393,0.541753866579931,0.9738811378179285,0.8611084690868009,0.6846915343456373,0.14857976770387132,0.6081805562493848,0.10578668008257439,0.7819917176652325,0.5012150553975672,0.7558413557020556,0.2272614308176987,0.8549315278680563,0.4178634757301448,0.39092196467168516,0.9387389905303595,0.5182078304743536,0.9387907662830184,0.6729688273913061,0.8889309132491778,0.4357261665778957,0.832343956628458,0.14560300525539324,0.7367746858507345,0.0897817986125307,0.7837634790690712,0.25898596373694327,0.7133553156094464,0.19025070552524037,0.9620180061602365,0.8491681219050655,0.9868417325710538,0.8647921202826835,0.9147534904947304,0.5278300929459656,0.9648589685354393,0.5161974510349958,0.8218675806081029,0.26875483918320875,0.6767102770803048,0.09175952175978665,0.8578181936569872,0.4556218618698773,0.9328859769517427,0.6770556616171132,0.6434584823656532,0.11195443160942906,0.6340700034417825,0.10444419383749873,0.7672950973602718,0.4402195170036795,0.7615142273593929,0.22389666224713714,0.8293047444108402,0.39174835646684764
19,3.833737411498076,0.46677101190032544,0.9486738783031963,0.622273106780971,0.8683348638839737,0.07523970566746738,0.982253020975177,0.8391001074374466,0.863809222295209,0.3184131689007864,0.9447335291261867,0.40422869979521625,0.953064636743793,0.6445816956351704,0.7225918399772543,0.05053339889516349,0.9121542109682684,0.3185518400844665,0.9823930152356586,0.8094200258203237,0.8257499660743366,0.24568488053269252,0.8714158477669696,0.3531464395459789,0.7922885034552984,0.30929220587953804,0.975601621851796,0.8833803480871814,0.9839164282846532,0.880139948186253,0.9609752011758643,0.6762263096782575,0.988658513963025,0.7446183837777777,0.9315325174834884,0.15909482054865717,0.8728929544473724,0.3972624954819034,0.7471409040017958,0.11628934680972927,0.9374765471301597,0.47702732809446086,0.8759776711155748,0.517836440948908,0.966235011486132,0.7496375674460902,0.6961299063119992,0.1349961598510976,0.6464803483643957,0.1250398622436817,0.8415109711869528,0.5730995023579851,0.7932684796211313,0.26033877356259977,0.8802022927396025,0.4494404831557617,0.39934411567414474,0.9320699995934127,0.5295921769796388,0.9419131722436763,0.6643002804990726,0.9114471762441121,0.4487282157423667,0.8597450250577034,0.1649901801345238,0.7449810103260884,0.10941412269376086,0.7929596032609831,0.22892746695870647,0.7479416995927053,0.210175536559643,0.9616987949950799,0.8237987073112499,0.9773199462329525,0.8362588102992076,0.9093434019310029,0.5134824510047896,0.9716739606445489,0.5502514474371564,0.8450484201747891,0.298742524748268,0.7188201041885902,0.09808614358235913,0.8611252726122464,0.3906522085802634,0.9273882692041514,0.6031880715861117,0.6592543157368418,0.09545696612338699,0.6555775393086265,0.09643725925333976,0.8172618605002766,0.4832669739732045,0.7879601680797136,0.25099131574066696,0.8433436705225003,0.38930215048461675
20,3.7997906208334493,0.4632183051352761,0.9660694715934721,0.719746044403554,0.8639654571841009,0.11465847983109462,0.9813787225948983,0.8537170940842759,0.8363847375990529,0.3514496746092036,0.9583176274484106,0.36468339678318334,0.9553299523084443,0.6671994177448178,0.6788961834683217,0.051327274515319585,0.8642901493737656,0.2537338023651872,0.9687916335559468,0.7984499407916199,0.8033107814214165,0.2687955617405514,0.8385155281686799,0.36934751666394,0.766640072634355,0.3137865453028982,0.9816904180244644,0.9177892029906953,0.9946210781026161,0.9407069835359003,0.9701085868503605,0.7465804373016067,0.9930136146598365,0.834671554376615,0.9408754484472305,0.152794881813229,0.835121142623319,0.29103682659195085,0.6909248079991993,0.12480117502406435,0.9247131448722571,0.3714547578254379,0.8910718990680525,0.5971496616099371,0.9856567117902537,0.9101115638429396,0.687160649111985,0.16655166451195252,0.5360585738090633,0.09305145087431044,0.8297827039901022,0.5459135079772236,0.7464274459963981,0.26509646097993356,0.8649660208729232,0.4647924953112093,0.38235074904971306,0.9524256129462495,0.6208483520690102,0.9582657818539545,0.7165807730874441,0.9178853370735734,0.42081609508286555,0.8056318530501105,0.14752000229547932,0.7265620421225494,0.10000735056639279,0.7594543671867823,0.23590548490431085,0.7345274690468164,0.22365573172603762,0.9625461491170794,0.8427749519355906,0.9873890930413415,0.904447380177252,0.9187586460160584,0.5445807200837808,0.9727094580035756,0.6500995781370338,0.8109166645392425,0.20611235978089126,0.6705072545343899,0.1033547936915456,0.8681727965735866,0.4594462266692621,0.9485767326078849,0.7016091056687571,0.6495386407375233,0.10986628450455738,0.5664474527885259,0.08194785038026216,0.8060733525503778,0.4687424887576502,0.7537166699742449,0.26074787351560175,0.830005545987572,0.4104770212123013
21,3.7755744372186344,0.4582743285881096,0.9612608620394232,0.5837720709020836,0.8349063635120847,0.08343018706482969,0.9607119291289622,0.6815185194746629,0.7787906246845286,0.17118497881198558,0.9588616725336838,0.3696428704466597,0.956870908798614,0.6190307414218619,0.6634223477867641,0.043911609814758924,0.8372887748249946,0.20986544880706226,0.9713683639992241,0.7230527982231737,0.7697814775505968,0.22230366698428738,0.8223734428163492,0.2895461963264356,0.7661730376932167,0.22586809990705953,0.97725185132969,0.9009940140739261,0.9913036188442693,0.921348130482068,0.9486495894114294,0.6601256860441953,0.9679218061415269,0.6654411799958211,0.9096370687756848,0.10461303046390653,0.8089449031408952,0.21152788718729215,0.7038215909671487,0.1039384616713516,0.9219908904162559,0.3073891921598924,0.852847542322942,0.5006022058286712,0.9747626346024858,0.8496510260254164,0.7165829926246592,0.15818187359670846,0.5728583592468262,0.1060228275627563,0.7981594589567316,0.4520184067151116,0.7080452839787518,0.13211288911018995,0.8513302844664514,0.3960420768885449,0.39062383543266005,0.94637274572195,0.4827708862973094,0.9286525949952172,0.54074681154035,0.9169866068435842,0.42249225077262864,0.8050412463950577,0.14313281165177802,0.6770890817353863,0.07233460468135669,0.7633662928361327,0.1855835900656638,0.7122446963021317,0.16256314049272333,0.959778898426212,0.8382941994167569,0.9815435416185273,0.8753915811537823,0.8783576847929947,0.4643227103996469,0.9164581113110526,0.49967453294874764,0.7671464008237386,0.14464085808336885,0.6766142215957202,0.09612531173241912,0.8173032911221456,0.3430460419301234,0.9251129220908891,0.6475255860966469,0.672229408633698,0.11091442918783231,0.5924592218920761,0.09960906293485042,0.7780702615576816,0.3742266988499267,0.7153587414087239,0.1498401663557353,0.8121150510580484,0.3501702776100866
22,3.7379791068218085,0.4808079302377581,0.970872844639179,0.6544990258653982,0.8629918068555796,0.10061830561760937,0.9794856060186458,0.8037674609913704,0.8373331677384891,0.2624129837796372,0.9700543998936738,0.4020654954784311,0.9627190434412587,0.6457225297098228,0.7493589904404987,0.06473295339001355,0.9141324409279123,0.354068602325161,0.9813951930128471,0.7538841287594255,0.8245167583694053,0.2830171533545632,0.8705006091173964,0.41178009459953446,0.7889506354009032,0.3153765616900413,0.981392334850015,0.9065760941805852,0.994278717618826,0.9215307492462358,0.967365910738073,0.7164133200806558,0.9831355139012893,0.7791418952363712,0.9217078468146764,0.13364105677687266,0.857557042150465,0.3714470455911832,0.7662055819344822,0.1373423516636924,0.9311164890316671,0.35246661013628106,0.8978708162226021,0.559546994590165,0.9735913188360796,0.8588738677362909,0.7360031288744712,0.16313561618955422,0.7021040750502896,0.1283990315586264,0.8490953074242188,0.565603516632011,0.7823966309181707,0.24141655051066963,0.8867743157777352,0.45721076906500774,0.4030707311619587,0.9548795429319292,0.5406748879893921,0.9465746263243336,0.6239800682222709,0.9192848996453951,0.4088975179252952,0.8464938124307679,0.19647407999323305,0.7218449432921045,0.09339412199573517,0.7930026235057758,0.2523300637446676,0.7151261476737907,0.18620140307733854,0.9624725352939936,0.8405524758519727,0.9871935539173667,0.8552848321521743,0.9082698697927809,0.49839763149260413,0.9475514218161278,0.5646735870855398,0.801984248551224,0.2425292187216139,0.7329223137502509,0.10673646373446262,0.8713316419918922,0.4215325536166844,0.9279181445592947,0.6689006069394188,0.6926823812547757,0.10022532211868387,0.7158509291059044,0.10442447758312541,0.8151762210731043,0.459504363066342,0.7772722512071993,0.23486310643315117,0.8440964267430532,0.3894514095654582
23,3.6914002156305608,0.5232913467988373,0.9562820178828071,0.7269631079586346,0.8893187903990064,0.09586838350478169,0.9780454972499538,0.8010054839885731,0.8055408335540177,0.26179051334866543,0.9699082474816743,0.5603136008756207,0.9562109784673712,0.6520050464340035,0.7826700347811208,0.08546592482054972,0.9248578307885783,0.3833528739570396,0.9743477360171188,0.8225228831274918,0.8253219062535065,0.3018970286600576,0.9004775698029563,0.4615862050903078,0.8259736049063275,0.3644850856063078,0.9831752863320804,0.9262177576136219,0.9904907532871625,0.9276683184915002,0.9605364789235208,0.6874065797267662,0.9886745407573051,0.7479877540101357,0.9291074797484573,0.24999823674123098,0.8310177383168336,0.3524640758094111,0.7780612918386741,0.1601709891615567,0.9157832119652101,0.3987666420704592,0.8902927218776073,0.5904085899140374,0.9801822421345909,0.8860284131469498,0.7203955697316066,0.1776106222107638,0.6643008723453611,0.16245640291356397,0.8475439171581522,0.5746362569208147,0.7818702118823575,0.25329534432843104,0.8865533601493598,0.4850912354012029,0.4308712827010509,0.9358000372011306,0.5803919280597877,0.9377644959787143,0.6037680879687152,0.9028104133337312,0.4037302855415625,0.8520032438380497,0.19732922848315393,0.7162495901770145,0.08285546529735151,0.8154237056618046,0.24070896325260088,0.7532157877140192,0.22145844841477058,0.9629996533824403,0.8414242488633898,0.9766217696911872,0.8803191314205264,0.878172374819949,0.4701766179015146,0.9571984719043543,0.5701278794597293,0.7760643503271979,0.18870969356896244,0.7451116731682565,0.1230246513613774,0.8640898629643654,0.4443983705125507,0.9338072627262537,0.6595510772212261,0.6831146551310926,0.11388832992044097,0.6705116796483847,0.11367133658077505,0.8138354560202159,0.4556079913810962,0.7851743928157398,0.2502958522695776,0.839998361921258,0.3916546098673215
24,3.667474984287496,0.4845842339320762,0.9496711227983059,0.7046978119524118,0.864283957177536,0.13790049887290026,0.9432663004118538,0.7464636822046581,0.8461962263018303,0.36533867680975735,0.9480702528385965,0.4377114653445019,0.946768215191431,0.6301890294456287,0.6448273777016157,0.058626787798438176,0.8779847321272523,0.2996093328008692,0.9698848251898892,0.7704360301088513,0.8011310764708373,0.30950529968866125,0.8664771278231322,0.4355545513887171,0.776686534684417,0.3321790472386568,0.9875437389680513,0.9436345769212681,0.9848825312748076,0.9009111503996744,0.9546692832340311,0.7215260167414589,0.9919250525586212,0.7472637452594987,0.9020972710529649,0.16850969199495597,0.8166785548172293,0.38038238956161513,0.711384588105371,0.15175517980874756,0.9532288064277018,0.5310014814764482,0.8715454044672288,0.5723203052029016,0.9693098446569344,0.868768785658132,0.6659213281947061,0.162301559235226,0.59647940860356,0.14225769406125777,0.7961157310424749,0.5130988059432031,0.740989510110886,0.18697433758112386,0.8606930308550488,0.46995838205767543,0.393008869344861,0.9177008228749174,0.5664582343386944,0.8625491024958879,0.5609117209229878,0.8914073951052505,0.37642163728098077,0.8018666403158198,0.11985130217134465,0.6700544883233089,0.07667275968096246,0.7603551187528893,0.21355906963234034,0.6991013526409188,0.17496100765563247,0.9646875939609948,0.8499528002279415,0.971512409404761,0.8343005772463606,0.8720403884824369,0.4449922821024599,0.969189494924789,0.5477286979546576,0.7596548892462962,0.1882125075976102,0.6920224594445994,0.11903663760156152,0.8372589898736559,0.40108652454565413,0.9034753061179208,0.6211418425167659,0.61281505121741,0.09908558371722812,0.6207974099708793,0.09838637422700237,0.7702344821661048,0.4098622784586241,0.7544016991406771,0.19453398196534644,0.8069013207610273,0.3630082010444292
25,3.624855225765792,0.48836053762639436,0.9597610875851916,0.6781775486503818,0.8581882882367979,0.14237543238810096,0.9805140386647201,0.8360596957533908,0.74394583757574,0.1806536769325881,0.9465072942375248,0.45706832727212526,0.9464908096897783,0.6985078587338014,0.638260905364089,0.05682032748049505,0.9162922466776263,0.3764510959209497,0.9732402740983618,0.7608882456164334,0.8099088158099585,0.3615681157640989,0.8741451708402694,0.43477225869628533,0.7891747484529155,0.32840254905450195,0.9886248280821651,0.9496576898827142,0.9904685119031326,0.8997841466168318,0.9658874916931205,0.7295270776777036,0.9905845455457036,0.7512000279753523,0.940853662834321,0.1623810626382114,0.8513005465830634,0.39101875966738076,0.7093715879271312,0.15076753805001977,0.9070448748350397,0.4009972813255347,0.8856472778886622,0.5994443346682029,0.9782546279095469,0.8834207576166212,0.7247045610595229,0.1885616915360519,0.6187703625152154,0.14793104117762348,0.7984542495219861,0.5315532306054567,0.7067526385877384,0.17996947397832744,0.8651211263122816,0.47222920175689165,0.39636282328389355,0.9458081657441617,0.5527320571080602,0.9390325937302461,0.6406010237951314,0.871075678015839,0.41767476930430286,0.8441347406637484,0.15258747539662157,0.6762383907665793,0.0732963941212159,0.7808966780107244,0.20763038809712542,0.7276741662233664,0.18357175058402106,0.9638746789511398,0.8515683953347725,0.977257333959456,0.8182586138504503,0.8943998773513598,0.48956261387337846,0.955752779282191,0.5582762272811154,0.8032716593057789,0.2104731449767096,0.6835610113439283,0.11883221946734782,0.8504932945225135,0.39092376040697124,0.9166915491484485,0.6382694553932802,0.6739805155481815,0.09814853704503029,0.6337900419055548,0.09705383110032785,0.7672056542179279,0.39906677693713116,0.7231919946058771,0.19184096112988183,0.8225437264893171,0.37317728395804606
26,3.5841605234630642,0.5084097289508335,0.9384236973420568,0.7069683481956752,0.8672649105110597,0.13599791857111532,0.987136963066926,0.8777017840640196,0.8002214662092838,0.32501274124332813,0.9620041109115444,0.524392584717108,0.9485956486360155,0.6883630011748835,0.7172967729526774,0.11459838768536686,0.9037212688425537,0.40685921737635594,0.9690501232996516,0.8099635697915784,0.8527904910286375,0.3965992867268298,0.8866919009987517,0.45396114731285964,0.7873844350500914,0.37064244265707863,0.9900149523370347,0.9560264876273227,0.9681177458870548,0.8740258801050157,0.971438157901894,0.7783791599025365,0.9920689416735116,0.8211393265526508,0.9166300903312673,0.19934815834234282,0.8627722079662804,0.4436578490934744,0.7086554730833615,0.157233313122303,0.9439427236158083,0.5748375833982806,0.8609807069570969,0.5307718045865332,0.9813268896861607,0.9006323400714303,0.7582689742756538,0.2312348485892893,0.5847388899248241,0.12441717796217712,0.7779610160665282,0.520667264324486,0.6670058217388976,0.16362846800094616,0.8694040146267162,0.503348465045961,0.3985242602668257,0.9064345149654512,0.5406320058310812,0.9494829877472902,0.6848151050714495,0.8773596534136394,0.38836371642968187,0.8471147652578723,0.18272236647359671,0.745404324829325,0.09982147168807,0.7766224830118643,0.18862353210516206,0.7308845395836632,0.21848433997684608,0.9651479719126687,0.8517673959947224,0.9490013093915924,0.836276825677044,0.8827701835451162,0.48262536202107587,0.9614249026013733,0.6210513555381865,0.8216683473317845,0.25007571451305155,0.6765660918836991,0.0944323851995974,0.8264892687440263,0.35262521269388,0.9290009287346703,0.6585874305188817,0.7207267994389691,0.12331311270888203,0.6141937088267497,0.0900231781228834,0.7416866392145023,0.38229792320439215,0.6810924140041329,0.16182172275856166,0.8212143070757049,0.3793873766593182
27,3.5434625161626747,0.47660927678815435,0.9750255443695733,0.7448481345597986,0.8992370867995993,0.22317222316149932,0.9790703662791973,0.8279906615527427,0.8233268407384011,0.26368293309090596,0.9687255989618425,0.5647574850955324,0.9599108454765404,0.708380897670437,0.738620005802214,0.13541919625438006,0.8866789009391874,0.36242183420937546,0.970679394648371,0.7801939946948017,0.8489683964203324,0.4338308666604653,0.9080711124330821,0.5540593022318459,0.8331891546402707,0.36320885410012715,0.9905833927930191,0.9549915736445421,0.995150294726853,0.9364502016108665,0.9794046849144205,0.8076657894871401,0.988501840468882,0.8363734316069464,0.9368240719916258,0.23912318578046948,0.8723391476137791,0.43830274773845185,0.8027161458218947,0.24833370306093536,0.9330177297162915,0.47359676521884686,0.87595238571637,0.5716166203870621,0.9906725247216693,0.94273946910851,0.7253690538916365,0.19656361822685336,0.6394697943555986,0.18509687267881866,0.8609520273228892,0.6272654570548583,0.7575784341755343,0.2760519725665165,0.8900013375284259,0.5267745304404896,0.3599910561228292,0.9483891942561711,0.5959782449224301,0.9458188597179257,0.621872265312895,0.889172030719447,0.37508667447494326,0.8074884593050209,0.16630777730935037,0.721087097176646,0.09026979403149879,0.7872994029178906,0.24242089033157707,0.755794712071437,0.2166783261273611,0.9605711570368383,0.8206199915751488,0.9855909778695429,0.8613169715772324,0.8945517620045921,0.4931654169049319,0.9437708555355614,0.6126231364291466,0.8143073532290045,0.2246272107596524,0.7440775981479035,0.13500205933512072,0.821229068242894,0.3442394080956711,0.9280122859234886,0.6629510248487426,0.66936097050703,0.09926669500326857,0.662511971205961,0.10717349624609566,0.8047807932936343,0.4553130616327553,0.7613961758520886,0.26241354349681645,0.8339584592112146,0.3888066309691915
28,3.509026056479076,0.5096767782166902,0.9629942249792812,0.7738566642176501,0.881158084898833,0.22544624646439543,0.9766562719133696,0.8415725120738058,0.813417844263665,0.27172008571430073,0.9716622148712734,0.5057694678638603,0.9727277010833933,0.7457469108762471,0.7607419114757115,0.1306039116764102,0.913537498505211,0.38389796994002867,0.9717319708563021,0.8122925564723101,0.8457100491478557,0.43121715952606005,0.9113115583862601,0.5142439384363432,0.8125270329051777,0.3872010363168007,0.9909509676650791,0.9601342144668407,0.9953780978255912,0.9480026911883848,0.9849389306068159,0.8153980778287206,0.9948983656671901,0.8452128576158882,0.9385539991657392,0.3273316268881568,0.880303330763846,0.42735882047972695,0.7761081672901978,0.2787857097506,0.9491706344820133,0.42504302015819256,0.9077893549177622,0.6802193748361913,0.9877683578402439,0.9246489924588854,0.7468469913603502,0.24520588634159526,0.6701422031258424,0.20411778096834643,0.8310156575488,0.6053601050132258,0.7725061499609636,0.31989822733730455,0.8930979835194912,0.5396263786503951,0.38533204143996425,0.9316283562254747,0.5939232466371873,0.9120609272952526,0.6256822578338938,0.9317702433794334,0.4477955596648582,0.8329859535346733,0.1502643960717606,0.7061173152750093,0.08443546696148177,0.7996892334181263,0.2227703949878653,0.7548123452679225,0.18547095612369233,0.9608354670622139,0.8301953809780338,0.9821952558779756,0.8792949654856635,0.9053441292659621,0.5112560835060577,0.9595941287117757,0.624049187824754,0.800460268225643,0.20749483659305468,0.7338561525271362,0.15750216557526484,0.853762390643602,0.42575458534995997,0.9265573739314003,0.6591865910880966,0.6873791698634798,0.11711878399075164,0.70054893119592,0.13189996155588105,0.7902122122349926,0.4487270948150413,0.7813967445819967,0.2956665741378416,0.8395371893956838,0.39992044679900735
29,3.4511649034467,0.5303222280191796,0.9526473565686271,0.7148017575692538,0.8710306733161303,0.24875943277206974,0.9680786775532896,0.8385481540639111,0.7481857507151153,0.21175519999356746,0.9521133260357116,0.5053406251175259,0.9490685308494154,0.69474619309537,0.5218542769457197,0.10503202409218662,0.9005655558577986,0.4089689224974275,0.9540834046774392,0.7863589186946782,0.82367571680037,0.47940160702602275,0.8899791119888701,0.5264601745733446,0.7753713363456134,0.38266281614898995,0.9942291170598732,0.9712832684665859,0.9937678501364139,0.9199304146248642,0.969751363935532,0.7772229880387737,0.9898387900893121,0.7634970003198038,0.9185953875585783,0.25658077070920976,0.8438838319909548,0.3608476636367295,0.7296404017631639,0.2314546346288415,0.9170488812014367,0.4077322005524791,0.8810546977367797,0.6374633328954182,0.9797407223240556,0.8936894781884408,0.6825808750904171,0.2128838906178648,0.5671552351355803,0.15383249191993834,0.7865254199790579,0.5776010183460915,0.6819498095013505,0.1897234577583063,0.8554775423521771,0.5098684013979883,0.39345606320339865,0.9221739226479009,0.510301474553876,0.9106153226587406,0.6547013531161138,0.8693158448561535,0.38691393615929376,0.802294231604425,0.12125473471030271,0.6468997072485718,0.07523778907177547,0.7616578787081871,0.21045544932514157,0.6964918033452585,0.1776116975639363,0.9647500049123003,0.8432217043980405,0.972060515259257,0.8692864764590115,0.87524547554871,0.4422717266267304,0.9621608518667342,0.5647702406328613,0.7693909397258175,0.15957272460376126,0.6672352498747811,0.10962279162130323,0.82479985658968,0.37418686695437703,0.9077744812451595,0.6366501202271944,0.611744869408684,0.08990544925479518,0.6056574642832224,0.08262545897891319,0.7454903764383124,0.4012082652459671,0.698586465870298,0.17294514814545017,0.8007550137943259,0.3622496530341497
