epoch,train_loss,train_accuracy,train_1st degree av block_rocauc,train_1st degree av block_prauc,train_abnormal QRS_rocauc,train_abnormal QRS_prauc,train_anterior myocardial infarction_rocauc,train_anterior myocardial infarction_prauc,train_atrial fibrillation_rocauc,train_atrial fibrillation_prauc,train_complete right bundle branch block_rocauc,train_complete right bundle branch block_prauc,train_incomplete right bundle branch block_rocauc,train_incomplete right bundle branch block_prauc,train_left anterior fascicular block_rocauc,train_left anterior fascicular block_prauc,train_left atrial enlargement_rocauc,train_left atrial enlargement_prauc,train_left axis deviation_rocauc,train_left axis deviation_prauc,train_left bundle branch block_rocauc,train_left bundle branch block_prauc,train_left ventricular hypertrophy_rocauc,train_left ventricular hypertrophy_prauc,train_myocardial infarction_rocauc,train_myocardial infarction_prauc,train_myocardial ischemia_rocauc,train_myocardial ischemia_prauc,train_nonspecific intraventricular conduction disorder_rocauc,train_nonspecific intraventricular conduction disorder_prauc,train_nonspecific st t abnormality_rocauc,train_nonspecific st t abnormality_prauc,train_premature atrial contraction_rocauc,train_premature atrial contraction_prauc,train_prolonged pr interval_rocauc,train_prolonged pr interval_prauc,train_qwave abnormal_rocauc,train_qwave abnormal_prauc,train_right axis deviation_rocauc,train_right axis deviation_prauc,train_s t changes_rocauc,train_s t changes_prauc,train_sinus arrhythmia_rocauc,train_sinus arrhythmia_prauc,train_sinus bradycardia_rocauc,train_sinus bradycardia_prauc,train_sinus rhythm_rocauc,train_sinus rhythm_prauc,train_sinus tachycardia_rocauc,train_sinus tachycardia_prauc,train_st depression_rocauc,train_st depression_prauc,train_t wave abnormal_rocauc,train_t wave abnormal_prauc,train_ventricular ectopics_rocauc,train_ventricular ectopics_prauc,train_mean_rocaucs,train_mean_praucs,valid_accuracy,valid_abnormal QRS_rocauc,valid_abnormal QRS_prauc,valid_atrial fibrillation_rocauc,valid_atrial fibrillation_prauc,valid_incomplete right bundle branch block_rocauc,valid_incomplete right bundle branch block_prauc,valid_left anterior fascicular block_rocauc,valid_left anterior fascicular block_prauc,valid_left axis deviation_rocauc,valid_left axis deviation_prauc,valid_left ventricular hypertrophy_rocauc,valid_left ventricular hypertrophy_prauc,valid_myocardial infarction_rocauc,valid_myocardial infarction_prauc,valid_myocardial ischemia_rocauc,valid_myocardial ischemia_prauc,valid_sinus rhythm_rocauc,valid_sinus rhythm_prauc,valid_t wave abnormal_rocauc,valid_t wave abnormal_prauc,valid_ventricular ectopics_rocauc,valid_ventricular ectopics_prauc,valid_mean_rocaucs,valid_mean_praucs
0,5.5930620715341695,0.5745362949393176,0.5753579156561134,0.04329638996301373,0.6025405232035856,0.19410326420040233,0.635014298810941,0.02156012717630606,0.7006145986388927,0.11158462623362654,0.6553634667010201,0.1244357644200541,0.5917151862124701,0.07470496901967327,0.876339684676332,0.259618203012098,0.7423110309555649,0.04133864797726612,0.7084409017588371,0.3379132094919117,0.8673427628477133,0.09997005327027066,0.6734733557380983,0.16170978964397226,0.7688657346027854,0.4718568697113003,0.7476559087502855,0.17156622611823827,0.6294291640171198,0.054861147853665235,0.6809418523504139,0.028015317753306568,0.4821162400480413,0.02109826338250606,0.5937030156495176,0.021263758700365426,0.5726207889957569,0.034808532034229414,0.6483823131606732,0.036752696130864605,0.5794791187506334,0.049733277288499515,0.5230076798793587,0.03577851238085176,0.6040684293103924,0.037260935045377516,0.7554946702300862,0.9391980795348265,0.3874457929776428,0.03463452808932452,0.6682221649386815,0.0696099805190264,0.6238084895140846,0.1616665492268427,0.6504214041886967,0.07400686404491175,0.6497843145393977,0.13749431786010116,0.6339285714285714,0.5988397551148684,0.19590202195798706,0.707707750805075,0.11941689206554185,0.5859392025570137,0.06937186491196784,0.8706917463388559,0.2662943384045269,0.7193742176773138,0.3513184562054787,0.6929732863796627,0.16978767278254286,0.7766842309521337,0.49525277467649503,0.7533762895703787,0.19026089054218376,0.7596567066175584,0.9422364907155927,0.6141241343069218,0.1400291490761155,0.636636010336338,0.07080652384880405,0.7014548482414655,0.27369791592611237
1,5.150056297128851,0.18594000457980306,0.38660463884839413,0.02914792921589123,0.31631775555292807,0.1059169025665781,0.6498486500128469,0.025609125125901095,0.3645297211438377,0.05036555183664944,0.6345740815665151,0.09773119337989863,0.5944456899761162,0.06985813308345941,0.905458275067862,0.3897360902705027,0.5240012560875205,0.01919311684286267,0.3139027352115671,0.18060332529006115,0.8775736811776417,0.11136517441606576,0.48788561054459906,0.09683408042876138,0.705830331999312,0.3840177787456125,0.7274757656349558,0.15446058821771416,0.3829660210008863,0.029232497689408235,0.3284326825444599,0.012294357805935352,0.4339673677902992,0.017086871123922032,0.37989644052527016,0.012046351591234118,0.43462801536591694,0.02585180202875396,0.27478664757378823,0.010998762228257875,0.6230139669339965,0.04679613303710909,0.5385550007399946,0.040350995886853536,0.5593716055839402,0.03217959879661785,0.8078749936001802,0.9551876740127421,0.2677961665884131,0.02472645165587827,0.4158214126226477,0.03655311862986775,0.6204805348023581,0.14814606073571251,0.7445834356919195,0.16991150554819143,0.5296526845995617,0.12134078408112749,0.19322344322344323,0.3115857602906617,0.11192604499359968,0.3487068968953885,0.05106683146041305,0.589634886314593,0.0701768617930539,0.9016182823344169,0.41731802004143664,0.29160600567180306,0.17440061004145313,0.47872482984989206,0.09895305759840789,0.7044033244600896,0.40892125751802233,0.7499947555999151,0.1837817441592487,0.8119584742180896,0.9573241964565735,0.6503996553501504,0.1484744715111797,0.7305690072639225,0.14678649071984928,0.5972001707499021,0.25173905329938523
2,5.020182036632855,0.4723303564613388,0.6003146062274055,0.04586919984620634,0.49886236946977924,0.16537550592795572,0.682966246900404,0.02682439781975296,0.7133360766730011,0.13347165663158247,0.7150716657575094,0.1373598058465236,0.6299903410423583,0.06822589446473379,0.9107709184078923,0.4876715863728872,0.7489818698821836,0.045907960870962994,0.684720043883634,0.36107271066468993,0.9241758080569963,0.1830128771076119,0.7338142661701818,0.25983675393541716,0.780276663275837,0.43040834804656103,0.8659272908938631,0.3846925008588617,0.5498900369344109,0.040978862279838185,0.5754594825219694,0.021093613387539525,0.5316289624849302,0.02312982547950341,0.4869998776915321,0.016560965885125928,0.6175173219933288,0.037509218878741014,0.585164691063289,0.018731176485217382,0.7093335037265609,0.0783473395569224,0.5306843975982475,0.040438796638607416,0.6229062871202224,0.04006105645617546,0.8009950542192731,0.9522495777690018,0.47123915285285367,0.04406834191479921,0.6365436354885052,0.07548208504348555,0.7080623900133798,0.18864838117875643,0.8353773731914612,0.17685544897297145,0.6722596419830004,0.16606977364149747,0.5824175824175825,0.47946936615832847,0.164245906250512,0.7163648482616042,0.13771366543082758,0.6188376783478547,0.06674520237924023,0.9033540757009265,0.4718434143144947,0.6890219931103108,0.36285946601861824,0.7511809602723255,0.3080758405725635,0.7838406751682182,0.45294027100461465,0.8697945188842566,0.40584981003549464,0.804074085255404,0.9539779932793842,0.7124540856452509,0.17522859957267467,0.8096964209412579,0.1666691656550745,0.7398262461587035,0.3332863031375908
3,4.810419596694697,0.48377986413250895,0.30985779798521274,0.024501796086020565,0.3194829166287268,0.10464680390184827,0.5698878140075135,0.019376490008562144,0.5613757678266789,0.10502745902019875,0.8429216309679809,0.35173685274331135,0.7486750539779446,0.23740241992711347,0.945073058975578,0.5621460595226057,0.5180331080480942,0.022075990064994992,0.6595001778943463,0.4038614288655824,0.862914558122479,0.12032231502301673,0.7008235447721559,0.32001939783382405,0.6953995236142058,0.42002796390353514,0.8489452023504362,0.37042657370271725,0.41630789328887585,0.031492716161413484,0.5341999861088602,0.02323396405534557,0.41207208285702945,0.014424566609185249,0.34623401786300256,0.011982249620331363,0.5152802485105086,0.029905515116344573,0.46461916526354985,0.015421849877922632,0.7453256550167641,0.11285382592417112,0.5392557739232736,0.045145557472601155,0.5453281189456322,0.032528883272073816,0.820057444782355,0.9572919243036823,0.43759909942606945,0.044590184932106744,0.6758578883121917,0.11119726177107757,0.7578140906304732,0.31122028026033177,0.8716018286132275,0.23675491025197223,0.6172016092115987,0.1866524163048848,0.5531135531135531,0.3171011736191288,0.1108103156959884,0.5853901713480212,0.11810806032710056,0.7085329219777544,0.22326654508289964,0.9314666655046292,0.5451936809384892,0.6591629307659734,0.409229517994253,0.6945501246094609,0.30914250528683873,0.6695481478242332,0.4203864199962378,0.8555388593485022,0.423678632125473,0.8233188171718392,0.9587617901133182,0.7520115916917136,0.2924344978110366,0.8674446049606284,0.22634635687983218,0.7149150917110804,0.3670325747501334
4,4.567921954869733,0.41424318754293565,0.34075989252724403,0.028903728076519596,0.31530529269438473,0.10380459961426815,0.6224564688246393,0.023582724580086555,0.5935209749710062,0.14961769843192563,0.8286369147425072,0.2593427113146981,0.7604542383101569,0.3070952455097699,0.8804058361437854,0.24070406696410215,0.5139149173936625,0.025221231026892464,0.7593749217128585,0.5324498187131125,0.9194946828016134,0.22139586899351982,0.6093016964380554,0.2424742248314524,0.7579188666518611,0.5366755273254102,0.80589108461223,0.2882368143973392,0.4120707321975151,0.03209919323210782,0.469807607714213,0.01905877580987054,0.4890368241174905,0.02772788087643141,0.40904985710791186,0.014001291020425043,0.48917009262884215,0.03138089985070658,0.49964800315317237,0.01812221217738911,0.7049841544467716,0.09687842676895364,0.5338940601162732,0.0406516681377978,0.6646417508146598,0.05635034438706997,0.834339569317728,0.9615368268663852,0.49355809703374764,0.0814439356586109,0.49749267484528176,0.05872697340778345,0.7589127734573711,0.35647849333120807,0.760612389269398,0.20067519167415457,0.6194316434831252,0.1835050508510367,0.5016025641025641,0.31401339997839844,0.11123288938326456,0.5913129240147947,0.15292393166567944,0.7136798519803609,0.27151755870975947,0.8626856717883464,0.24333268837421876,0.7602750392838269,0.531882525909192,0.5750032567168449,0.22335371567175394,0.7335401783030059,0.5348685085891821,0.8099042979790843,0.3080291090400931,0.8366178978988046,0.9628608794051652,0.7553672527016015,0.312384891336662,0.7571642216208517,0.2002540194085169,0.7008694538423564,0.35024006522668066
5,4.451674879730116,0.48217693305854514,0.45861097673384804,0.04069975617115925,0.2853261856839532,0.0996897972281574,0.6154288807094521,0.027300420202458264,0.7285758329521282,0.15314772234394528,0.8979378985111959,0.5399278683137073,0.8283901111153387,0.3693869207181986,0.9100190149917117,0.38917630460104546,0.571871639698161,0.026878617101567765,0.5988886503407121,0.37275560192098234,0.9333023207082612,0.2612898664310033,0.7070836996974668,0.2779798868139666,0.7368359182591951,0.5616343741993037,0.8584728776814087,0.4212787767253103,0.42425249826200695,0.035222940446150056,0.5042205912995161,0.022351250961545124,0.6105356247100701,0.041956973224699996,0.5265592092310079,0.022010612686478206,0.5303984593166797,0.033323000366589015,0.515667699990034,0.02788035034774335,0.7982118202505118,0.1324388418470012,0.5828405162940661,0.04908603204839583,0.7471606007415046,0.15982624173382692,0.8591113363847673,0.9679035368488587,0.573885790907217,0.11352335037061065,0.5749417700227917,0.06399720843038427,0.7976594907106431,0.37268789662347446,0.8777613902190412,0.36298159335644337,0.6686648446452849,0.22023465711344467,0.5858516483516484,0.279095901125737,0.10492866485498176,0.7507101961281455,0.18846718129204607,0.7615960824363417,0.3142212382102986,0.885357747739111,0.38273326847091527,0.5848877713267143,0.37110848628733745,0.675914496767842,0.25310784434824624,0.6963619244917928,0.5338656870266932,0.8653028282221594,0.4695186359411814,0.8574113558145152,0.9672586833552749,0.7982147327158752,0.3587358818933539,0.8786019492542779,0.331527492121108,0.7303140896384103,0.3886793694364943
6,4.2993787890599435,0.458209297000229,0.4387922552935562,0.03238063045217584,0.32380160901388444,0.1055471838516915,0.6180028187129702,0.027439611843681516,0.7693917315839651,0.21383705759492916,0.9354798925248474,0.6184337006974032,0.8964141812088844,0.529658275656072,0.9423963472952042,0.5857624761921713,0.5766895290553706,0.025534893411938576,0.651164179282714,0.40412570029579026,0.9655805961548536,0.701726355852209,0.7161275151266587,0.3529790783183566,0.7086467690685959,0.5164551759995739,0.7331344247535821,0.2222696541312949,0.43647973220080993,0.03352114233407298,0.567061461678645,0.024836403871962245,0.5802695364828703,0.034098880996758264,0.44932998824645454,0.015935492574585312,0.5521470809500384,0.03863049802935139,0.6171267166168737,0.027865584338474435,0.7457225141769313,0.1120173422680269,0.5769679840393588,0.05053929595154364,0.734868606322904,0.12766993485981964,0.8551360960075365,0.9672960865077521,0.620245639472115,0.13991661709209002,0.4377165028205269,0.041607732883014184,0.783535695732594,0.38090115263947755,0.8779525677949943,0.43143424682079856,0.6707474804302869,0.25046000760981535,0.5224358974358975,0.3070463158247717,0.10898261887017566,0.7583124639719477,0.23558945513206359,0.8610595967063066,0.46488461626954924,0.9189725846326363,0.5537522488395556,0.6393097245407555,0.4091158711144958,0.6841251604333463,0.3028718328359289,0.6629548448457749,0.492575068248815,0.7205987890404183,0.2383566145331248,0.8511049390170269,0.9664965884098956,0.768482765436307,0.3300202666433951,0.8825096140150976,0.3996537071803438,0.7322251634967626,0.40929989891612206
7,4.167602953224016,0.6090374780551103,0.4131498048624231,0.036065335074835704,0.3039808801058602,0.10265630322565383,0.6619076179746924,0.029818208519908462,0.8032713687411334,0.27684151722580813,0.9052866412236789,0.5595434537286469,0.8726336035401246,0.44528590439083854,0.9260331461402581,0.34898654113977645,0.6299406476598913,0.031242511833270356,0.6872819885641389,0.3590014817431928,0.9465529886321966,0.3969138449627626,0.7232390056336477,0.3289511898252641,0.7644503409164407,0.5424452067310583,0.8112694305708985,0.2944676084629187,0.4175534824108517,0.034592021601476494,0.590162757854282,0.02549839907523065,0.5905098799031105,0.03569666171732461,0.4572796657697379,0.016396191872291188,0.5157314898076657,0.03069424615785112,0.6909242886441584,0.04090530630918688,0.7591471672069421,0.12942169082457267,0.5713967475100805,0.04947808170676968,0.7334889250724672,0.11452825077205504,0.8456452963884538,0.9650433648103512,0.6947914551448089,0.1882489288769214,0.4822721118563238,0.04768943757626082,0.7911816869618259,0.40407553951872166,0.8416672128337501,0.37877884361570646,0.6826203567381425,0.2301209656036539,0.6318681318681318,0.2986831243948934,0.10786867808457347,0.8005247837120913,0.32295564747460137,0.8267659589014756,0.3573939973337785,0.9095215892023485,0.3418853256038194,0.6797128635139282,0.3553241035609983,0.6942967947499589,0.26077752811722127,0.7315462948285569,0.5197868065340159,0.8021712920435273,0.2997178403698647,0.8425918518294893,0.9636437293993116,0.7865023188709404,0.3595311730887216,0.8407430768917735,0.3495813832105219,0.7466418135399074,0.38531511025249343
8,4.066664993794817,0.5820929700022899,0.5516107021684132,0.04677814826258723,0.3428713771932089,0.10854617217026842,0.6373138151903393,0.02646772962287805,0.882077401560203,0.4042706087440964,0.91902162754606,0.5676147151899802,0.902170544297073,0.46919163846377476,0.9302777973351476,0.3736840404761445,0.6997272072714491,0.045769937303749036,0.6979653033984504,0.37141522182741027,0.9702603593692705,0.37796559248701705,0.7848792485945386,0.369932698371587,0.7581176737902473,0.6330829183625901,0.8284809391058564,0.4102977038125454,0.48386944789480457,0.03787448614528659,0.634586788203115,0.03849451706936104,0.6497668523736685,0.03885136813424073,0.5317849131013251,0.01960195458764422,0.5365800698738199,0.03159865606061697,0.7550324871171777,0.0443125309998824,0.7749107723660602,0.13844783066332694,0.5961940009508846,0.05703572669274974,0.7816391866740917,0.14981282984118552,0.8744054925813288,0.9712638235336133,0.7480164800986453,0.1423051574003334,0.5790915939241764,0.0632253789987645,0.8076939554319384,0.431035327834172,0.8980836181040867,0.4470105168888615,0.7243122094635325,0.2524402677757284,0.6213369963369964,0.333820537925339,0.11358116263041165,0.8806974153883934,0.4341523032046811,0.8512945308794435,0.36379018036693067,0.9107460861127816,0.36850077253901076,0.6885339345771171,0.36781508789177936,0.7506113017684507,0.2911990799122102,0.7191681197286646,0.5910172132568451,0.8146617969191634,0.3872118798033601,0.8691741637483397,0.9698258698958814,0.7926413943169466,0.358644081811467,0.8960577451319511,0.41727455467912383,0.7734006387724173,0.4239101987265183
9,3.9939019005768683,0.6101060987710861,0.4129430636272709,0.04268545235286767,0.3418156741817101,0.11206219503994182,0.6462538027539464,0.032509171995233704,0.7910825446839529,0.36373305060464467,0.9532813452979788,0.7662543897170372,0.8718258006628102,0.4269835766966793,0.8847188461554547,0.5175436551813294,0.5139508236066341,0.02170532120412587,0.6226808022470374,0.4569511442854676,0.947054638797213,0.4369392976757436,0.7871419159418067,0.39146934244577775,0.698441048995433,0.5600344142507828,0.7779420525842642,0.28164232504513964,0.43113157348498077,0.03395902207721857,0.6078445250718536,0.03430920902312278,0.6061259237909472,0.03661305725285933,0.498461821859208,0.01886092785175373,0.5044258146288663,0.03306255487597658,0.6228725640282078,0.03773508932158557,0.7569165187307694,0.1395751278777187,0.5749730747920923,0.05720431771762111,0.7952168509135412,0.15511532905123057,0.888522921594528,0.9746482127451639,0.6698651068642881,0.17864615586658483,0.5104369631204001,0.05992259265418016,0.8221176689816909,0.45878260103855517,0.8942611550998409,0.5108961154140972,0.6826779571295084,0.2644386536763866,0.6318681318681318,0.3275250903541289,0.11452736150654949,0.7672805089333623,0.36263725307462463,0.8171589971925837,0.3394260998403162,0.8479241654392646,0.47556253159323014,0.5983011421765398,0.438131914515756,0.7555214697723289,0.3049974856082703,0.6466698005433267,0.5181415203691592,0.7707700325042397,0.29263046593923037,0.879396736505253,0.9723000634914712,0.7895890180734049,0.377375023888741,0.8833519848617414,0.4598477684206079,0.734862631486925,0.42323431711345055
10,3.881464431034901,0.5312571559422945,0.5288524962574117,0.05969724993166371,0.3858331306097247,0.11807742760108458,0.6509216309614487,0.03148559102189313,0.879622480240388,0.4207428451127241,0.9470924072944615,0.7442645872560033,0.8977697705208901,0.5173174812614073,0.9249012827233525,0.3832193774981724,0.6782590715157272,0.03378157868546435,0.6917294283458317,0.3701106130215013,0.9727466079941328,0.3963444487824119,0.7744768123468155,0.3900384654120134,0.7266796925700634,0.5041099557378412,0.7694773565473861,0.2672513061432604,0.5084393975836131,0.0399000508154774,0.6889818456032889,0.03833719868368806,0.5790649241481345,0.03108826152934848,0.5017813035099548,0.020064197355689442,0.5593662442682359,0.03261246510830551,0.7003467140841451,0.03839006650391755,0.7659097896671875,0.15276767438069408,0.5792464154695445,0.05603402081453765,0.7566262177550324,0.10336118266197364,0.8729465179860536,0.9704049234794754,0.7752052125723845,0.2669759279297868,0.5554773172976867,0.06033812163112786,0.8264113489115631,0.43793688971074224,0.8962548559218874,0.44389008698558685,0.718311861952087,0.25661266648354786,0.579441391941392,0.3732735820474758,0.12266188221108162,0.8647501935448892,0.45338436711655195,0.8494101007165962,0.3803162722588413,0.9043744897929539,0.37603297875193853,0.6854450358891444,0.35818842467657863,0.7369301546353225,0.2876953352343407,0.6818696125107272,0.46729687234034295,0.7517008417538158,0.2560353022451116,0.8641732580606207,0.9677094462529272,0.8058036572888058,0.3542589227506229,0.8973050237043971,0.4186583591277654,0.7650032681767954,0.4038398329969185
11,3.754549345636393,0.48614609571788414,0.40497600821081403,0.035157513088082126,0.31378178513653154,0.10401427059726565,0.6588827087010658,0.03547603141510665,0.8156521779558377,0.35564757670599434,0.8919658918364375,0.5526391379715131,0.8666583426085975,0.528862883555258,0.9486114664356031,0.6164881716573507,0.6096056048968516,0.03440826973091232,0.6751680066396581,0.4594289454769799,0.9734255330294934,0.7112625846905487,0.7900624712318097,0.4412900302236195,0.6265994966411752,0.38037515006432077,0.757040522182609,0.27446396585011723,0.40989453430023953,0.032118940137395094,0.6229842137118778,0.034295047284698975,0.590359588005015,0.04875813222140439,0.49527359807647553,0.0200739480685663,0.463716108082171,0.02315388946678406,0.5896915690854226,0.02713743220956669,0.7742873060322253,0.13912532174555528,0.5818493849499794,0.06194550847449826,0.8195429435317383,0.23564692076781954,0.883788939063476,0.9736451684516005,0.6890787953185102,0.181514019195801,0.48013663967611336,0.04730277156384168,0.8423494250587045,0.4812069075920999,0.8587896654799182,0.3996166867281916,0.6827471379954945,0.2679650083309219,0.5766941391941391,0.30911230504505327,0.1094661604754241,0.8029174848971201,0.3579407970225317,0.8001756237634762,0.38390672293467026,0.9219924293263378,0.5547275423075062,0.6555213754180651,0.42592056992913874,0.7557400969113511,0.32415195580220135,0.5734270034490864,0.34752419035281434,0.7417298570873374,0.27344473262532876,0.8742063911363362,0.9713396776458437,0.8275679638969814,0.38486116386760016,0.8372443892811361,0.3822462869033907,0.7363304472920256,0.4105027090787681
12,3.6311932419030852,0.5712541027402488,0.46477660506377105,0.053402816474382296,0.3644471489359389,0.12138108274495377,0.6472435450104677,0.032463293297637134,0.9192793573656939,0.5085778551163477,0.9517072617185691,0.779401424327809,0.8870697838618589,0.5501897797631488,0.8920677892906785,0.33252437039186356,0.6227864922086668,0.034205248985270914,0.6791739880693317,0.4409952104630967,0.9553650793650793,0.6277584495883323,0.7672507101071258,0.47345642325771825,0.6680589479679095,0.4532022605686896,0.8515876731670111,0.506074079565346,0.4444465768950714,0.03884328337105641,0.6348406322453044,0.029801926429650637,0.6682472256180673,0.10537577745026092,0.5583265964238198,0.03470231700755917,0.5366076186083448,0.0367807077895394,0.6272992194249807,0.035122251813658065,0.7882652568321978,0.15322936528868536,0.5831183133455037,0.08206838209351057,0.7793092277299839,0.13609040941179584,0.871221290408462,0.9713299485063518,0.8073197818457354,0.4339324747099586,0.5444955754169704,0.06138759184498042,0.8380425332528837,0.49354833457800507,0.9138501823205027,0.5669305816901091,0.7135631263888863,0.29973243135295247,0.5570054945054945,0.3572899961047028,0.12725547867881043,0.9125496021067889,0.5039581604863798,0.8174741371574588,0.405917683770666,0.8642900096739614,0.3124887170607013,0.6467831299440169,0.3956588435333843,0.7098596301650996,0.33494551579013315,0.6152473120630565,0.40987555164302997,0.8399497420859243,0.4764466812164758,0.8594478323873929,0.9687104124177621,0.8110787410101956,0.38176473561521546,0.8923087879219485,0.49989740747883116,0.7569344473291406,0.4379017443355808
13,3.576199655678061,0.6208686359819862,0.5135523374016957,0.05276843682910216,0.3930704766926742,0.13389732319533995,0.68870743614186,0.03598097546739959,0.9369785474362872,0.504219600368698,0.9632800637550818,0.830743915183571,0.9004125586195902,0.5889554057415093,0.9298016818795894,0.5255711507180378,0.5887993718302531,0.03872016215260987,0.6972343854389615,0.5114797326264363,0.9825187280632826,0.8718118225222956,0.6712133316219948,0.3495197459066002,0.7831064522456832,0.6423806608214384,0.8229502475865818,0.40350354569517966,0.3930252939761656,0.032129387543028035,0.5220015809440022,0.019426965736314653,0.6494604130489802,0.06917801115571501,0.519739020577654,0.031247643429025595,0.5043640915148038,0.028798354387695835,0.6224417004051617,0.05232101559248364,0.820208393855132,0.1866762021322279,0.6189940380018847,0.1087238525121031,0.82987721345041,0.1547903828610896,0.8829909583346134,0.9741761452630284,0.8707258036605494,0.5101130350091405,0.46436195058706564,0.047164570995051655,0.8469341557251762,0.5511887556518412,0.9303007921637934,0.5808303509470318,0.7165574453688492,0.3272710055719998,0.6163003663003663,0.38912927434784966,0.13441757534030419,0.9295783631563881,0.5062529624211873,0.8303890002264734,0.4258872288495362,0.8884415044898221,0.4664902444184239,0.663034006320409,0.4401683262372773,0.610067419377572,0.22851813017427922,0.7243133257172842,0.5390812466795221,0.8127511791619559,0.3839023663245625,0.8662635098418066,0.9700110811466078,0.8029116521119568,0.38546554787805387,0.8927431989745053,0.48504100221331914,0.7645111303387293,0.4513850646984612
14,3.4375003330689897,0.5703381421265552,0.4990690107145892,0.07266486984950402,0.3223792141028585,0.11952870140726164,0.5857168485755162,0.026406080346717934,0.8791855453590915,0.44637888353428734,0.9629852585663761,0.8259260249655835,0.8809073520296333,0.575739034639458,0.8592325966904748,0.3386562070299426,0.5656450614153725,0.027742354513429275,0.6250543385776578,0.4044079265262253,0.9837472890146157,0.7512402862472412,0.6724427107306825,0.3769833283326479,0.5853210864421139,0.3665800699074018,0.6999743864434492,0.2542177272395556,0.4040407102213759,0.034378457885949454,0.521270973140489,0.020435126599603608,0.6616171408235085,0.0933189435663277,0.5360571329701865,0.046982401009336074,0.47021051882752585,0.025622117316392513,0.5149640809603988,0.038562189254257306,0.7631921984760202,0.16515324202950282,0.6112957015029239,0.11289682341873272,0.8165839126117179,0.1887243917058676,0.8842287141994082,0.9744794268917735,0.775162793347318,0.4645181217856062,0.5028558097797925,0.05566735044856195,0.7966436442488195,0.5027059330363005,0.8943647358781817,0.5258738493110923,0.6768203246537075,0.2902144395851319,0.6053113553113553,0.32224674816767007,0.12215595030328037,0.8695734677264395,0.43924597328323245,0.8071813454233132,0.4004964643436085,0.8206329908228097,0.3013985466639794,0.5957210084190462,0.33950984643991694,0.599597875552841,0.21643677971866193,0.5424770561966034,0.3331390760036305,0.6931708526180045,0.2593128020103492,0.8661540725757758,0.9700651480671456,0.7602079734600679,0.340776682755016,0.8558111380145279,0.440278248481439,0.7029795026342817,0.3784377743700236
15,3.3481093788954985,0.5957560491565529,0.5805737600428844,0.06694234134485472,0.36300955541693336,0.12873481969188844,0.6993728211607199,0.0588676781924813,0.8858965934758959,0.43186792935086304,0.9508607556674725,0.8034027789018119,0.8880938356537147,0.6447280809785756,0.9360152761260514,0.5923385106406417,0.6099092328732089,0.0342555171186369,0.6674725509867523,0.4638578511561231,0.9740359369270261,0.5028292339247392,0.7685572039482743,0.4152108221359953,0.7201267582167721,0.5232317248898982,0.7785279585160567,0.3059017185694947,0.46478628451687093,0.04989061042834085,0.5315871288667807,0.022844858777803165,0.6545778196484211,0.09122232173590729,0.5412235470648952,0.06227287095453713,0.5013904555375048,0.03042908376704964,0.6683365442039851,0.07618751423419534,0.7625028855550724,0.14954156560891096,0.6190485549255442,0.12844852634157522,0.8149740727487544,0.18389493360361509,0.9045914252654645,0.9787286151961524,0.8246793520057556,0.5077731072513181,0.497099823269452,0.06367986422793034,0.8069631379673363,0.48686218178794777,0.9095887041036322,0.4572750532375122,0.7156963694330086,0.3059711153351407,0.5668498168498168,0.3654978045574587,0.13209059250902833,0.8681885553777573,0.40984704132651134,0.7927725052665764,0.4432776722022914,0.8744571106521063,0.5083369934316222,0.6373236602377678,0.4185875100486404,0.7070764719826251,0.27073247712526816,0.6579585890995752,0.4404595497840341,0.7553266543598078,0.29717951184718844,0.8845425522279918,0.9732337513211986,0.7650054946323035,0.311585024449508,0.8625633304169125,0.3691677919769147,0.7427920662555347,0.4158634469111096
16,3.2778680977880676,0.635600335852225,0.5508440435643823,0.10040421111626614,0.3343207445369951,0.10925683689318838,0.6291636449881186,0.04201222644869901,0.8900701739480334,0.552271700144293,0.965871497815003,0.81772876342977,0.9141434014461225,0.6491868737882516,0.8751901760581545,0.3810274636687876,0.4741679995010926,0.02573922395858772,0.5634676696333898,0.3308410460526403,0.9833499921420713,0.7916664133264795,0.6973635551778808,0.38835218260937643,0.6172635754079342,0.40456239864420485,0.6494499931207397,0.22069872003209118,0.45734627410538664,0.049798122930440294,0.5560075872082447,0.028264305268274472,0.6364855378205334,0.09747026290716324,0.5424727341610533,0.05142261382766926,0.49877437191210067,0.02857138930481931,0.5496339907188229,0.10792442969001775,0.7474383389507732,0.1588678525452652,0.6227609181675342,0.18920555052387575,0.8556871621464249,0.2327665285558044,0.9055797007956257,0.979108587584606,0.7807106766892423,0.4237312131810436,0.5369384486891606,0.06683798841418606,0.7941411771332088,0.5339506129843086,0.8839481074050174,0.5491978996812727,0.6856515367867795,0.30780983027819925,0.6032509157509157,0.33612944708225084,0.11870834997824045,0.868797693566815,0.51636064558953,0.834333591142751,0.3843359289172526,0.8258243929080858,0.34048916899289455,0.532126850306163,0.2959328104285603,0.6201910037735205,0.21652401430268187,0.5540713977272106,0.3550388448595464,0.6178764485585077,0.1893717900519898,0.8831406231131504,0.9733809558267762,0.7488636437608257,0.35280743878509657,0.8540673896677315,0.41299695465088504,0.697765680146092,0.3778133547621321
17,3.1487608220265866,0.727654377528433,0.6359104622505214,0.10869140859350873,0.3688608156329575,0.12354105852225881,0.6873227852046455,0.04041187424163887,0.9487297529043451,0.6263035832166565,0.942463546478743,0.7517105263021522,0.8849638854680248,0.5936544808713191,0.9251364649368503,0.45972908133649254,0.7197693309286668,0.05235731758444002,0.6874891696026914,0.4231004031695945,0.987135418303735,0.6146801235890887,0.8964640820537636,0.6263790205247994,0.7359448315121633,0.5843129310926254,0.8395010131881432,0.36380950182200505,0.5901356952466303,0.07083682633448697,0.733710488802749,0.06566703846118178,0.7433625957948197,0.08633471013826319,0.6292532023936661,0.039414084230676036,0.5428483950130514,0.03854964484044602,0.7246597863366027,0.13439379725330797,0.864243743896267,0.22198813013271246,0.663219738749433,0.23178100267707105,0.8757890925567933,0.1999750611597049,0.8803119835345437,0.9737278787603011,0.8936749106975773,0.5791318904137495,0.7597083314024274,0.17553487934900108,0.8935902029595801,0.608595653827003,0.9468116713537731,0.5986697369232666,0.7778152369334507,0.3478993201988056,0.6893315018315018,0.35667119363370403,0.12653823061081224,0.9304147322144006,0.5819472748068788,0.7733684295988001,0.3836292627422671,0.861953588226237,0.40605616088076113,0.6387121554134688,0.3570235252826555,0.8172341184334446,0.39294777471943326,0.6689423712878593,0.4888800305838883,0.8247122756500848,0.32635321174366055,0.8612856237169424,0.9677009004609085,0.8373056240535296,0.39474335946370664,0.895543980303986,0.4556449661403055,0.7696494629574961,0.44376951794866154
18,3.0640593362522437,0.6222425769025265,0.6715776562571502,0.16043767115360663,0.414103198321675,0.16980272477929154,0.7004440917252378,0.06288680795363304,0.92404069866553,0.6232140175372337,0.9765972067061597,0.7898185317366928,0.9636872197854754,0.7251492483300018,0.939990761756845,0.64727846923012,0.620933700122648,0.036147605716640364,0.7304451376042946,0.5365050880356756,0.9943994970925664,0.8837621619908244,0.804435593922978,0.5007619260294665,0.6703964697387078,0.5583858727162866,0.6500650858171025,0.20479735457393544,0.5126737581174983,0.06878093678391317,0.5811652681816829,0.025683982869478213,0.6543579120226362,0.11222374042443527,0.5933444803083366,0.09024074051330228,0.5138825861310603,0.03870454885453075,0.7360683057468216,0.129929502046839,0.7768391367029385,0.1762190632003644,0.6432896161154078,0.20430549393142883,0.8656123553039173,0.22253489919307146,0.8961326247452872,0.9773346837598235,0.8227858006774212,0.49778267104476015,0.5522152273694322,0.07309113256776963,0.8573088936596778,0.6285339460181725,0.9299992735595856,0.6779988199081877,0.740621909487336,0.36378932003331427,0.6062271062271062,0.40025738595532845,0.15362750649332216,0.8961562901889683,0.5933666062016215,0.8713128624109595,0.4211560913778545,0.8859598283670762,0.5235453934288699,0.6657074646853852,0.4349916835640474,0.6920950406075218,0.26120837469280433,0.5857994391818395,0.4169512630994172,0.6152641852741663,0.1883661757871443,0.8719319828523125,0.9707439049003299,0.7897529397910205,0.3658824296011013,0.8682361080025229,0.5316082993885884,0.7402248661197365,0.44194979350319097
19,2.9651161028350477,0.6402564689718342,0.49940821342886466,0.11009878908956507,0.367768667673263,0.13677640602843003,0.6787938599491902,0.05139707921775331,0.9151149385784236,0.6443546002402337,0.9725701594413815,0.7792614233489997,0.9158720682980538,0.6571455984863396,0.9773688312376353,0.8041724611848231,0.6790126295379626,0.044873234559609045,0.8422648604733299,0.6171239495667635,0.9914099219445753,0.8582501376642607,0.8506973335575777,0.571311388410952,0.6671592990994151,0.5472031234329361,0.6467876859904866,0.25690803765682413,0.5218226851745078,0.06971168647936213,0.6458774735324178,0.04661817245574115,0.6403453070216245,0.09848347062434383,0.5515988849047485,0.06242713926152593,0.5319535098250179,0.0373226626046772,0.8112244095107711,0.11168003733868909,0.7758608445515467,0.21340757602255858,0.6270705749775182,0.258017093838766,0.8714520742859686,0.21206374568737557,0.8997958611085511,0.9781586739482092,0.8649955329646384,0.5270280735385746,0.5332307802895937,0.06494145802457166,0.8497540374114789,0.623794483202614,0.9178937284130325,0.5595321867195931,0.7424853397474657,0.36822454402348487,0.6176739926739927,0.3651451222417572,0.13399996405893916,0.8803202918760579,0.5985672657394475,0.821236587856749,0.3768656531080647,0.9403112226667016,0.6546742147883748,0.7789930391508393,0.47603276834043246,0.7345861193389185,0.31408520681361757,0.5864564600676698,0.42551849080485377,0.6258402080977954,0.19824763882596524,0.8783091565028378,0.9714748972689267,0.7687715517113841,0.3363957732284763,0.8506124483691782,0.4344508615902916,0.748234746170899,0.44730115768794454
20,2.877468363536823,0.6428516907106328,0.6156081460949604,0.1392777745464518,0.37495237693997435,0.14986400357170185,0.6949986088876118,0.058115165867929586,0.8519511836258722,0.459840814204123,0.9757811456859307,0.8608021047336086,0.9152581188463578,0.6699719391714246,0.9486044519234925,0.6498156744336496,0.5766222836477437,0.03148841595190381,0.7187944046289654,0.512016626539207,0.9774054167321494,0.49147014646398646,0.7088617951547483,0.4386372245542178,0.7028581958035399,0.5706389941454711,0.7391451283482963,0.3057724375464339,0.49435259348096117,0.094641906704865,0.6311958617633148,0.03777575764937381,0.6697429878419711,0.11364739394310518,0.5612109134950987,0.05015402248305111,0.5213715410645854,0.036903703995968366,0.749776138248026,0.1844972730898373,0.7772294705256438,0.21322836207393395,0.6362577874605607,0.2197127055922358,0.8498055191484768,0.21531233412907017,0.8669572287244391,0.9707325769470668,0.787387799618319,0.49556178738749634,0.5408394490388302,0.08484480392359613,0.8738504918952181,0.6689267315558425,0.8961717850543021,0.5648687143013141,0.7280366971733109,0.34401923687062463,0.638507326007326,0.3684997958770677,0.13986841116035742,0.8186609962598597,0.432599877411937,0.8096159351858578,0.4190904429436122,0.8980776996307627,0.5288321390535652,0.6549108283375504,0.40247722855075235,0.5888090666996966,0.21486347684344204,0.6254409747085221,0.4332225421633694,0.7147808171989825,0.2860325891944171,0.845040982369279,0.9632039867898725,0.7818592510138588,0.3554367538411134,0.8264878832889089,0.40473737800390963,0.7211076573245769,0.4163968023596681
21,2.8007648063883437,0.7949774826349134,0.6456899764004472,0.16215448359642265,0.42610595355069836,0.18135486742309553,0.7335077164928157,0.08631737416229829,0.9385537191062061,0.6459749851408287,0.976459323425866,0.855061637937537,0.9338495654071091,0.7223214148406233,0.9363018254810299,0.6259800186924894,0.6285499118407981,0.04569217583191397,0.6384739877707859,0.43030559919679345,0.990959819791503,0.8763659529232408,0.7303362042512009,0.4636858795765401,0.7013560522052111,0.5724562902584033,0.8221055679263506,0.4309042640664251,0.5912343374704706,0.15566399933500744,0.7567567165314485,0.09113527179420292,0.7161054359473497,0.10079249354446398,0.6202031215507522,0.06568425723786189,0.5737457537752227,0.03966701089739967,0.7631836775371685,0.20676288627396883,0.8478463335569464,0.27629343536180145,0.6863567895103286,0.3230149787939211,0.8745502167132843,0.20893844365205044,0.8663872863740156,0.9710504978864136,0.9062617820546159,0.6076929341001859,0.659364243976627,0.16709591167221077,0.9059485497794126,0.6390661885725748,0.9439674394281606,0.5764376121542985,0.7708948632539195,0.38992114314529536,0.6913919413919414,0.4066943743563889,0.1505176926518711,0.9129004146764033,0.6327311973165869,0.8321222700332873,0.45269581637668277,0.8479902563163995,0.4907631977426896,0.5796435116649926,0.34753525904259874,0.5892062793771876,0.20375828266006513,0.6265124598927558,0.45202390295190165,0.8033940653264556,0.38937818505112287,0.8447055005434126,0.964606148323943,0.8165514776329704,0.3662856828760575,0.8877021995238774,0.4433523611832518,0.7406748008494666,0.44487706601607013
22,2.6781926630526205,0.8110067933745516,0.6023209767992207,0.15280047495010346,0.44074006122026477,0.22019581458422186,0.7841438273378669,0.10921755325370708,0.9245028851558644,0.5807924888463867,0.9682799262072838,0.794123248054004,0.915482675764854,0.6625712742054795,0.9388067469672908,0.6566292602562588,0.6384263251754837,0.04366631947213002,0.7784065988483142,0.5564940987366246,0.9841613494682802,0.8077705695584851,0.8062378165484466,0.48561280619943015,0.7530403983743803,0.6263460940863878,0.8114607474750443,0.3512201977872211,0.6051763362777626,0.15930770419251858,0.7377815849790476,0.06970130198157667,0.6938921632859665,0.11141409186101112,0.603203736076225,0.05824628973524212,0.555338084579497,0.04204574893605926,0.8034400151663995,0.19108358229782607,0.8158008250060425,0.28754531842273545,0.6693769040334663,0.3547104564636649,0.854737307927662,0.2065425426694724,0.8794414442089311,0.973643521034979,0.8464085617616259,0.4739552152278515,0.6175947346303403,0.10816471488057339,0.8958820589914754,0.6874479874049532,0.9149303327601253,0.476986257924931,0.7718153490750801,0.3795642567786605,0.690018315018315,0.4135058805730727,0.16722528233698447,0.892458406784715,0.5409757248553262,0.8055030915764689,0.40600760458352436,0.8601480726157171,0.5211897014793493,0.7055413235529143,0.43389544888759835,0.6754564208575097,0.2364586241631611,0.6728115246492152,0.49225825773028764,0.7935285207037874,0.3110118295750231,0.8607342863180776,0.9684127071026598,0.808343556249116,0.3634842329002341,0.8163773984169939,0.317375289300713,0.7549462256634171,0.4325722457195329
23,2.6553936282347816,0.7700175559117625,0.59799477345083,0.1567948584141629,0.42078752799058095,0.19823856179562804,0.7996330656012114,0.1112400419686987,0.9438615708615756,0.6385294977308185,0.9609515640526546,0.8180529304063486,0.9025790211581983,0.6682148878938172,0.9283393521623171,0.609267107061679,0.7222399303545455,0.05657835087641484,0.7794611307019162,0.6122285817659298,0.963043637697103,0.5606364450692942,0.8429666507826915,0.5974874182372525,0.7683445878532831,0.6955703386637173,0.8135629625968607,0.3519417892482723,0.6609183027962743,0.1857368710163592,0.752591524420293,0.06232795397898462,0.6611112882227754,0.07061577585124237,0.5863057771360727,0.05339886988018953,0.5979588828744046,0.05026860870016657,0.8140527481980534,0.17015915505680415,0.8483371745254893,0.30446198253832585,0.6740892853907975,0.3460583686792889,0.8536066299231604,0.17070770690653853,0.8845185389979418,0.9752140220609695,0.9136140904108356,0.6105311756710449,0.7064366571595883,0.1811301324070103,0.8975232376226293,0.7026122229287077,0.9323195288266222,0.5106742105894996,0.7861907200655076,0.3877288098295248,0.742445054945055,0.38494114747891606,0.14014018273046863,0.9099878730473095,0.6008631064091675,0.8072806946325789,0.44792408589739174,0.8570425276637528,0.4812777650513041,0.7064454056879015,0.46460699129186356,0.6993516464038372,0.31110522873335933,0.6790819199002991,0.5421806217939249,0.8110972609878463,0.3261146998707822,0.857084742180896,0.9664664159006208,0.7853732118774007,0.35795209544160594,0.8423749160681222,0.3912526869750979,0.7581873950844418,0.4572621709177806
24,2.5512033168454815,0.8190214487443707,0.5673011361779184,0.12878711989536024,0.4255107389150957,0.24326341838492135,0.7866596122825341,0.09962803842377843,0.9096065325274454,0.6054200747396351,0.9368507576199804,0.713734340658953,0.8862549974449878,0.6743979658959339,0.9247373784093145,0.6469380583014902,0.682718843643561,0.05791777765615147,0.7553711793765611,0.5772900481318559,0.9593424485305674,0.7142429493686313,0.792919373827143,0.49399529273962617,0.7243008628677479,0.6436763207404423,0.8122934719159207,0.35055029667911614,0.6341591408548619,0.19486752931751328,0.7840572711848149,0.0944367864637268,0.690432847172658,0.15871914634673154,0.6054297129032451,0.06260555944893713,0.6576552469993965,0.09078889732988965,0.7978196802017792,0.21437113508427572,0.8497078343710033,0.28215584870967153,0.6782449617988466,0.39539822334717134,0.8504707982290279,0.20313655501203753,0.878010669779539,0.9735156252228361,0.8806362822504793,0.5915172953114073,0.7303434660251846,0.19070142898173745,0.9253289637275585,0.698223025959685,0.9189054742899675,0.4913783358934466,0.7794470253084127,0.39228359607573937,0.7174908424908425,0.3871332757032103,0.15172959127885566,0.8762827581203144,0.5744906031980533,0.7797075501125957,0.4255901808632412,0.8399199065721931,0.5032131407196151,0.6700730148397791,0.44839920344989137,0.6684181752562128,0.23318614403292875,0.64408653872433,0.505166353025746,0.8015673579706049,0.3194969560240297,0.8545088153604636,0.9672789346799004,0.8222283766838222,0.37517208063327556,0.8336989032901297,0.3836998107908589,0.7434204247848778,0.4443111816996723
25,2.4334417734789615,0.8196320891534997,0.6508337473605763,0.17551609155085401,0.466275851790242,0.2184398545261068,0.7983533182211398,0.1259181175351595,0.9490390623247998,0.6726666356789841,0.927640926105968,0.4838543301029666,0.8916586917855756,0.6168709024058723,0.8799430526180774,0.5430073303927313,0.6750733400148285,0.05634195839832654,0.69328872972793,0.5184232932022923,0.9911006338729111,0.8993101287676336,0.8541110358712287,0.550653417708125,0.6958152795706405,0.5318823018718947,0.802736476242508,0.36239864511757985,0.6373184991647749,0.19708808936929145,0.7935981690154819,0.09087316051730697,0.6912454644052182,0.17249816220953457,0.6175697605737163,0.07123769331850122,0.5917047389402873,0.042551954629168415,0.6955517639556728,0.19006996003175247,0.8600922733563862,0.35986688936607125,0.675892616357743,0.38663820872425214,0.8465636069898769,0.19886622112524854,0.8537215003225509,0.9683210854840548,0.9011601428348722,0.5822217393357347,0.6836082153374311,0.15242818133637792,0.9190264495165532,0.7519169623178262,0.9013085437642538,0.5198880288166229,0.7757122922237499,0.3866573831051952,0.6744505494505495,0.4283824846537377,0.1568703435002577,0.9217440806358638,0.6305680962638146,0.7893177166346897,0.34294796577976877,0.7949367125380931,0.41369370007581274,0.6271040324396335,0.394260745970442,0.7139993977743276,0.2710330416608331,0.6257074453256954,0.4010476996076408,0.7935721320308083,0.33888750913487853,0.8338957402487622,0.9626945837567582,0.8059143192425751,0.3800870650255768,0.811291635298187,0.3733667713603947,0.7405332451656702,0.4241325020123798
26,2.4319786873130194,0.7807037630715212,0.624681553125143,0.1445531470724059,0.4060509033318701,0.19309952484811638,0.7738944457367347,0.10556792115052675,0.9175061383288612,0.6431550524316291,0.9575844107351695,0.7501258711842796,0.9097612303744477,0.6613462764997997,0.93709834293697,0.6874542801638014,0.7512902614161284,0.06197499700043454,0.7385019472324221,0.5383047698755793,0.9846261197548326,0.823659858268442,0.8529647341327448,0.5690932474669229,0.6705885931003764,0.560368871047751,0.7209081425062147,0.2827449011829144,0.7138575702363341,0.2439863584586932,0.7671041273222183,0.08400569935792947,0.6991022824199469,0.14164109190958785,0.5917384358835146,0.036625087066898786,0.5717387645334104,0.05090790176760078,0.7823471801661859,0.22883455144127815,0.8502199462447785,0.33313669269821267,0.6647423673743384,0.3904777853016821,0.8086308421010284,0.18684272309826727,0.8577313304457346,0.9682619578501725,0.8167475694702864,0.49232019533232524,0.6897424399769134,0.1757582235762394,0.9085807689012214,0.7353402843119683,0.9174689784735309,0.5259161749761722,0.7735262750467169,0.3931667942718383,0.6994047619047619,0.36666873324076643,0.13318444602254653,0.8762213659206319,0.5911548879466194,0.7978521341919385,0.37821878017199256,0.8540052524090487,0.5383725518379798,0.6557809344826259,0.40348525443124506,0.7179998206136294,0.28719736489797976,0.5954462221299064,0.42334545180945016,0.7094674118499152,0.2430487680685373,0.8446126675522279,0.9648776555744603,0.7885173132697886,0.3662790867986678,0.8459254888396037,0.3830804083299723,0.7320452131363712,0.42838587780813187
27,2.3996542473620437,0.826578123807343,0.6718833554511046,0.20406862670929482,0.4528540086498427,0.25264627655459476,0.8095582343971163,0.1418922221189578,0.9450971676446119,0.6504677393264263,0.9347976470604022,0.6804130688929578,0.9179028334387286,0.6842929958015284,0.9049664749889511,0.6035900269169571,0.7299159857609818,0.08357336704176523,0.6483565995687182,0.40459135299424087,0.9585233380480905,0.7365648309228269,0.7820264952574286,0.5248750274061993,0.7313955274983723,0.6276691809600914,0.7874138589711563,0.3021166886803315,0.6677041359291755,0.22975927464904936,0.7811569996461066,0.10075834329248669,0.6970427629246152,0.12936806992981864,0.6339825874505546,0.06744238821278546,0.6188835997385078,0.05877788945032281,0.8306518629419068,0.29348618810412175,0.8615225934301207,0.3409916719674395,0.6777431155721184,0.39773298572131066,0.86064944111899,0.22006271910345493,0.86359114879325,0.9703004389690166,0.8442320114155188,0.5392851589199311,0.6703233415976104,0.16044247909431048,0.932081760241301,0.7541529437514365,0.9206555769541017,0.42051028235431054,0.782774535721829,0.3918456384387395,0.7172619047619048,0.40626273331329144,0.15413767322275218,0.9027356204718269,0.6072005304124943,0.8085871901479769,0.4221014772756657,0.8024020765608342,0.45027670510247153,0.5706210635972203,0.3164350178148596,0.6327154825386588,0.267809629652892,0.6370492547021815,0.47021630080142984,0.7786471214315998,0.287441037265138,0.8471023653544258,0.9639072275341041,0.8170349579336632,0.4018281966631688,0.825231448511608,0.34927659317603726,0.7298535740512079,0.4264209444473648
28,2.3277283514849914,0.790245019464163,0.632918843033556,0.1808607461646597,0.43710322233139853,0.2039887499983689,0.7516765564875248,0.1258293396152658,0.8999586858151047,0.5828789845140736,0.9469714239417709,0.7218378429781535,0.9232921994826402,0.6976886225682116,0.82689652366008,0.5252164622977673,0.7531159663590281,0.09946839824407794,0.7099088383959993,0.4584628488079987,0.9733943108596574,0.6947787455784704,0.7212129074755986,0.40894111929246707,0.593322146329442,0.47390960875137933,0.6701080110655906,0.259394796068784,0.6894253420798587,0.21337262384124864,0.7363686576197862,0.07994345314840892,0.7371521572092291,0.21177547057654628,0.6177625455673621,0.0682631722545274,0.5802267969911667,0.05034638929845796,0.8494995238020304,0.2912238758968306,0.7963382009525976,0.3598868945734745,0.6578625537777836,0.3357166462937722,0.8685438603549144,0.2058485722496698,0.84252367933319,0.9655009219598732,0.8025902679578036,0.4812974938408388,0.611234396525212,0.14228136025988056,0.8911833047425541,0.6826781643946305,0.9110782506948161,0.44294066088109085,0.756728487883174,0.3690493320129232,0.6323260073260073,0.39781122508462236,0.14453020616582798,0.859053874445776,0.5182958770405101,0.8004373501749827,0.3864184058140754,0.7255652585678469,0.38579391267322494,0.6439590398297759,0.3567523744388428,0.5880696318094746,0.18934131134923016,0.5256831213411535,0.35442698079134405,0.6528273388920294,0.21824470178531002,0.8327968391498611,0.9631061037108127,0.7749946592292365,0.3340077084275573,0.8156337111115635,0.3397108891404351,0.6924392772396656,0.3809662246670155
29,2.3001877502688615,0.8302419662621174,0.5657218946322458,0.1317513434437001,0.43811656856656056,0.19510399406145712,0.7799465447960994,0.1284470023765658,0.8621423501572254,0.4749314130092442,0.9104125612003828,0.6092675835915135,0.8951140989957669,0.6238333385488071,0.8054902804131818,0.48326101156542006,0.7453263654282383,0.09964831715061455,0.6234463774779138,0.41055671228889573,0.9564463303473203,0.6654582053485628,0.7853358821458218,0.5070699845242528,0.6290140931580103,0.4814093006517106,0.6638157921100896,0.23112319410612175,0.7179743073562408,0.28039818405534567,0.7715059649215646,0.08674125245760146,0.695438348116374,0.196597898473641,0.5726213986122464,0.05213020890796331,0.587809324630568,0.052557664083460624,0.7552990605674362,0.27320893056294865,0.8291269200169895,0.38666749525897914,0.6713526725426454,0.4098311194559777,0.8206312740454346,0.2400868901479987,0.8572768510838735,0.9681638093256032,0.7568608119560347,0.40573832276730987,0.6102036877493502,0.11070936779188112,0.9010005973805135,0.7349784542477804,0.8877910230297652,0.419021695518764,0.7442674585717739,0.3577293590267452,0.6881868131868132,0.372665697326438,0.133148293216522,0.8219833507543667,0.4396196282935329,0.778436307542421,0.3277065452455517,0.7122555726956071,0.36751598819087444,0.5614571704212322,0.32141191544321757,0.6393437021502872,0.2519209068177447,0.5680940381640585,0.3710122716253981,0.6514814602176372,0.18629761144710918,0.8480520166646541,0.9657634003282087,0.7634322603858019,0.3506986672383497,0.7884723380877775,0.32736580292937056,0.6823339922191165,0.3674964573432618
