epoch,train_loss,train_accuracy,train_1st degree av block_rocauc,train_1st degree av block_prauc,train_anterior myocardial infarction_rocauc,train_anterior myocardial infarction_prauc,train_atrial fibrillation_rocauc,train_atrial fibrillation_prauc,train_complete right bundle branch block_rocauc,train_complete right bundle branch block_prauc,train_left anterior fascicular block_rocauc,train_left anterior fascicular block_prauc,train_left atrial enlargement_rocauc,train_left atrial enlargement_prauc,train_left axis deviation_rocauc,train_left axis deviation_prauc,train_left bundle branch block_rocauc,train_left bundle branch block_prauc,train_left ventricular hypertrophy_rocauc,train_left ventricular hypertrophy_prauc,train_myocardial infarction_rocauc,train_myocardial infarction_prauc,train_nonspecific intraventricular conduction disorder_rocauc,train_nonspecific intraventricular conduction disorder_prauc,train_nonspecific st t abnormality_rocauc,train_nonspecific st t abnormality_prauc,train_normal ecg_rocauc,train_normal ecg_prauc,train_premature atrial contraction_rocauc,train_premature atrial contraction_prauc,train_prolonged pr interval_rocauc,train_prolonged pr interval_prauc,train_qwave abnormal_rocauc,train_qwave abnormal_prauc,train_right axis deviation_rocauc,train_right axis deviation_prauc,train_s t changes_rocauc,train_s t changes_prauc,train_sinus arrhythmia_rocauc,train_sinus arrhythmia_prauc,train_sinus bradycardia_rocauc,train_sinus bradycardia_prauc,train_sinus tachycardia_rocauc,train_sinus tachycardia_prauc,train_t wave abnormal_rocauc,train_t wave abnormal_prauc,train_mean_rocaucs,train_mean_praucs,valid_accuracy,valid_atrial fibrillation_rocauc,valid_atrial fibrillation_prauc,valid_left anterior fascicular block_rocauc,valid_left anterior fascicular block_prauc,valid_left axis deviation_rocauc,valid_left axis deviation_prauc,valid_left ventricular hypertrophy_rocauc,valid_left ventricular hypertrophy_prauc,valid_myocardial infarction_rocauc,valid_myocardial infarction_prauc,valid_normal ecg_rocauc,valid_normal ecg_prauc,valid_t wave abnormal_rocauc,valid_t wave abnormal_prauc,valid_mean_rocaucs,valid_mean_praucs
0,5.119221664969134,0.5118693229524464,0.44049586844393307,0.038127798934685264,0.6529478659727828,0.025521260804772492,0.6449260948304578,0.1733581949220671,0.9561605743377961,0.2672662598081529,0.9221174363517985,0.3567483167163918,0.40553516320633665,0.015599335879601023,0.7447135329895038,0.5018287050375454,0.8749908324165749,0.10025506599726525,0.6081932912580108,0.16743623005450164,0.616325561348023,0.42241539599385713,0.4202375696432749,0.03391080712054502,0.5799934513198237,0.024132415141097225,0.8978672719858538,0.6986489464218841,0.5054518223380604,0.02090560495523197,0.518084873127338,0.020759853015668538,0.5366065724538692,0.034920619969948344,0.3919517672527161,0.01230844581441597,0.7163324789943455,0.08643704795416486,0.5810902496054785,0.0461245427005349,0.6846012877871954,0.11703891060706775,0.7289733108036713,0.21195157795255004,0.791846205375466,0.35051367695194613,0.6463383219019232,0.1693731369433589,0.5201465201465202,0.646250172416405,0.21210521323404813,0.9146055028281086,0.3884471510365177,0.74923532149744,0.4975068041000422,0.6310801835720525,0.19203849096783143,0.5913220768856554,0.4226244996446574,0.9019830649815579,0.7199599294342636,0.7879533515481725,0.3133189798563623,0.7460613819613418,0.39228586689624617
1,4.732057545332679,0.43393634073734827,0.6728891965038668,0.08581578094942921,0.6769422741570847,0.024182705281268833,0.8167596478922928,0.343913075689784,0.9694364850779562,0.4070179271957413,0.9155136870994323,0.36083496220080835,0.5886223604996381,0.024138982575381655,0.7657398853662073,0.5312312008644877,0.9645471213788046,0.3042822796097902,0.7359391474091908,0.2725582103060844,0.8519277671258237,0.6771670969483027,0.4963920582779537,0.03705072631038646,0.6775644863089587,0.028985262328991554,0.8954885911193853,0.6843640876641081,0.5672699379118795,0.03409445985472718,0.6689367068594169,0.03725202427664358,0.6022137093661978,0.03348975008180058,0.6022001020584791,0.021052504356951246,0.7749275518052472,0.08791559334606196,0.594937890013901,0.054700279238260485,0.8370527840299142,0.28454820144649057,0.7705150551495867,0.16896036915790594,0.8429045036019588,0.3960084088153017,0.7403964067733262,0.222707449477214,0.5011446886446886,0.8228755309029995,0.3910024820739679,0.9096083788706739,0.3790903850123285,0.7713900000349967,0.518381852282987,0.7582587135861684,0.3127091302542004,0.8440630346493793,0.6711329584833212,0.8941593756505197,0.6893356246926657,0.8406994545608406,0.35903064046304906,0.8344363554650825,0.47438329618036007
2,4.557900616835296,0.5270590031295321,0.6183104910145192,0.07506090653399608,0.5041330481172852,0.016919228826328958,0.7814884374067308,0.3108212506368172,0.9459755737653138,0.46189545485459366,0.8710129251752844,0.24845917324599207,0.38897452485686335,0.014643796882587008,0.5594339753668576,0.323904940336311,0.9454613651841374,0.2323825318027067,0.6268205408321433,0.268013510763809,0.6346436175817827,0.5108510988376931,0.36692352171749953,0.026728896128614354,0.46959328727207783,0.017793105206543404,0.9130449577627214,0.7428957510335966,0.5393426453586152,0.029290835202378206,0.5475694175133794,0.028289373337316598,0.5052795929203705,0.03701318813913372,0.5035825373596228,0.03290117597083577,0.6733259289114483,0.0811132838873049,0.5786446785159228,0.05140644390064742,0.7893451595759322,0.26456935149220684,0.8564530360986075,0.3077313550545125,0.7915907458148911,0.3309963735556029,0.655043182187364,0.20062186480134223,0.5057234432234432,0.7824236524212844,0.359184749523567,0.860234499147355,0.2630900247662066,0.5537666394858748,0.3190209991544935,0.6211968487794253,0.2962153730591742,0.6114216139100395,0.499427886071683,0.9069152364059269,0.7240918476731115,0.7868798714190945,0.31354249678353535,0.7318340516527143,0.39636762529025305
3,4.439897026490478,0.4862987558201664,0.5673504925834646,0.09314317745688798,0.5762088234533946,0.022321418337801886,0.8331918817809002,0.3241226405160956,0.9582461860843404,0.4227607573069147,0.8271308780740119,0.3215658726141723,0.33731272862651174,0.012975335120981757,0.621202416507453,0.4062119902682066,0.9335283147362354,0.23148504210536894,0.6473681285825003,0.3033289921861866,0.7430980222344677,0.575774698527999,0.36834719334719335,0.027327084220920964,0.4681426553905891,0.01813700136340281,0.917823220132933,0.7768874553041186,0.518903597831893,0.036214188287018514,0.5334908924938397,0.05110692209042848,0.4128058142011053,0.020111129702303887,0.5143179728578398,0.020456954539144333,0.6941310775891436,0.0835821989572107,0.6113476549348753,0.0662117824496478,0.8353409925828369,0.393228474266702,0.8639757870450767,0.24612484358876702,0.7783597560866005,0.3630697234930056,0.6618920221435094,0.21891580375924022,0.5572344322344323,0.8351842682886963,0.37983690802699493,0.7915479209698364,0.33337231033400166,0.6094505163767188,0.3854602348485589,0.6273232136641161,0.2980491429032684,0.7183717142123129,0.5501643751901886,0.9077396748865368,0.7647623967881991,0.7720724735195413,0.30290183455070185,0.7516699688453942,0.4306496003774162
4,4.329664910970667,0.5078238302419663,0.6496946276696585,0.09385421566584812,0.5948681635948169,0.021112139970414036,0.8223975482055039,0.5144370031927902,0.9446836641227402,0.44618871308038677,0.8685811985980036,0.45962085361982546,0.4155816586024672,0.017995732871626573,0.7582331138935289,0.5683732655469712,0.9536782440148777,0.30949131515855655,0.63902547632255,0.2929122139289741,0.7184721243308945,0.5577991190701435,0.4234987364543625,0.03393365956657214,0.5694057568852096,0.026385512661868248,0.929559525324179,0.7997470635854853,0.6337012340201,0.10670557586281428,0.6714925063689897,0.05375563098159349,0.5106768200995567,0.025897153198018295,0.5268274424909463,0.01892320981175096,0.7091751159899919,0.08755360283923302,0.6527736809382516,0.09767404209919997,0.8688657012850346,0.4391981076910581,0.8741733993786885,0.41250262190335174,0.818953229959142,0.4255985242389072,0.7070144985704316,0.2640754216611541,0.586996336996337,0.8179537900115689,0.5391776906957517,0.8462798825180189,0.4577990498823964,0.7591936403946231,0.5541149783642828,0.6273632552646696,0.2778260386536643,0.6889951734655393,0.53545804964444,0.9193917553658929,0.7757394092063123,0.8052479804193438,0.3593827735564255,0.780632211062808,0.4999282842861819
5,4.221755507720098,0.5420196931531944,0.770953918767855,0.2156707193956897,0.6332883312276604,0.02793008696450634,0.8436432219302841,0.5110120948495654,0.9514694284653924,0.3183046434768477,0.899825665411432,0.6133261590719342,0.4477372471525428,0.02023734689139422,0.5903988681999546,0.4572320112224476,0.967868824977736,0.7663618025636754,0.7215326462407599,0.33009089352255666,0.7676829565697267,0.6305194987065144,0.46438918194068746,0.03846178046229489,0.4882729013629854,0.023593967542544343,0.9321141257441933,0.802083386034364,0.6863167359462435,0.21792924881404582,0.7103329027677512,0.10134787908697909,0.5151283236327691,0.028534303551817856,0.4908199821809792,0.022981071856749392,0.7436867783781842,0.10855597347864698,0.6831233719691409,0.10986289935198773,0.8585837305175076,0.45203159637033796,0.850800176659993,0.4558381333342303,0.8363801437188465,0.4626891386322397,0.7206522483528465,0.3052088470536987,0.5535714285714286,0.8314592766404275,0.5351241896744935,0.874067101849673,0.5731683964905285,0.5708514587219428,0.42202921523567327,0.7144457281484978,0.35974493630569854,0.7402378831027566,0.6038320743959544,0.920876218302933,0.7676185349917247,0.8181457198974335,0.40098535866301277,0.7814404838090949,0.5232146722510123
6,4.14080961854683,0.5643843981375467,0.7055574985781432,0.19476659475476923,0.6828567823190377,0.02856168970706043,0.9020641412748215,0.6101252795960359,0.9782075534086379,0.6187672469381491,0.8973800840835232,0.5790961127486481,0.4187058140977871,0.019027524003424712,0.5984747750230367,0.44207652991107094,0.9718589763738278,0.7922652876829182,0.7138740068827281,0.3827097567695181,0.830706228196722,0.6903495794375177,0.4660009851372767,0.037244461087370034,0.4597444691765531,0.02399993950440254,0.92388020232604,0.7662344512308225,0.7185107569311566,0.19938083940936832,0.6934479950360661,0.09111321245583329,0.46746157358371604,0.029311350321974527,0.6254785396195961,0.039079082038716635,0.6846079831486973,0.10464076024451369,0.6917811379647312,0.11626676587057957,0.8808870952373894,0.46533549703228294,0.8915337352286917,0.5539204741284418,0.8076435046403343,0.4430678514303969,0.7277574471940234,0.3285154675592643,0.57257326007326,0.8962423987287829,0.6457467009854655,0.863218030172301,0.5427770596272501,0.5863628834037351,0.4215961694811624,0.6984205457189656,0.38444119154538975,0.8073390107517479,0.6600697105268108,0.9133484492853163,0.7463765567888014,0.7969471503363353,0.386343465718874,0.7945540669138834,0.5410501220962506
7,4.068048132620607,0.5380505304938554,0.8664771130098256,0.3006331308217764,0.6507289276880016,0.02754819573899047,0.9529306361089986,0.69224135272899,0.9840389751779629,0.6140973306959581,0.9556177876873614,0.7100603219299061,0.4198585925142475,0.01806137559579173,0.6440800447974439,0.45688009174280064,0.9867999371365709,0.8248118705629821,0.6657350813574259,0.2870461706782491,0.7777471277134803,0.6219392919721017,0.49819273436547606,0.04934698217708375,0.48044292891374596,0.021797493376735366,0.93569849367547,0.8060458409936208,0.7600827321115231,0.2809611713413758,0.8106735765979155,0.12809919074873233,0.46937068926236347,0.024988514831782903,0.662101385582479,0.03722500566742388,0.7042494183975195,0.09851978493894128,0.6946317407441713,0.15861346896497028,0.8752476798868475,0.4484682410752422,0.8935455090904246,0.5954306038936019,0.7888924673133395,0.43966122105048244,0.7489610717787543,0.3473853023421609,0.5535714285714286,0.945621659805889,0.6998234414687687,0.9415560552316377,0.6651425051420615,0.6283286262734434,0.43382804290468613,0.6415086180202152,0.26804194888702526,0.7524209197199189,0.594734226743656,0.9206164466377396,0.7640960075640048,0.7784559521040861,0.3534867226715385,0.8012154682561328,0.5398789850545344
8,4.007759867110477,0.4719487062056332,0.5852614745471304,0.14566519042651457,0.4914598622266616,0.02343179054228127,0.8230623401149251,0.4520206835244874,0.7719170601659014,0.27502418227680847,0.6824593977383471,0.3157551929327596,0.39643451305190847,0.015111983269775003,0.6415784907368383,0.4603908393079942,0.8965494263712086,0.7097376407554706,0.6122465633077223,0.22798761612355567,0.5911366765657522,0.3715948894000215,0.42138662190167736,0.03450901565767212,0.35945077079288645,0.015201535311156558,0.9372326594847933,0.8326830742351036,0.6957229918627672,0.18877204992133262,0.6140052890954543,0.08048550021694842,0.3622544675445685,0.01825535185108604,0.5354323510392056,0.03827986429403063,0.5716837133339594,0.07483634656187961,0.6973902287215661,0.19286183128662374,0.8735224431114396,0.47564543303829077,0.8837473572210233,0.47625715890466674,0.7138141697219753,0.38280522827516494,0.6435340394844414,0.26396874536880116,0.4661172161172161,0.8068944237544758,0.48657899322067205,0.6359837953884546,0.2867009406685161,0.6266910710515233,0.4311583355574872,0.5618904333675734,0.18609952237795135,0.5679058689128546,0.37234550684344303,0.9237303410562635,0.8056390205217662,0.7006937380128546,0.3083947331319713,0.6891128102205714,0.4109881503316868
9,3.9575523574901315,0.43401267078848943,0.818764177709209,0.2822845136692024,0.48275153668507803,0.01713019722782526,0.904309893580421,0.5356774181919662,0.9892154970921854,0.7055560313727499,0.9215583666660625,0.6330917341563189,0.5181527954246665,0.02181586753398945,0.7086003154720314,0.5196986362606059,0.9685046885640946,0.7686844865120979,0.67018173382195,0.322606140257717,0.5001351312515305,0.28248193844298736,0.4727537881658326,0.03867291658525394,0.36599581281358423,0.01435653626297606,0.9271681944418753,0.797778245092888,0.7888948600821466,0.22201080429876233,0.7207727508666002,0.12651308551165585,0.3590678810117848,0.01805359793684444,0.6840615677890852,0.04042295443019922,0.5304027336587753,0.053662937159978066,0.7167164781588797,0.1924058284365156,0.8741762883694733,0.4093082738559193,0.9075299178047116,0.5521628294485128,0.718315374968618,0.3107767785561022,0.7067286265635725,0.3120523523273213,0.413003663003663,0.9042688308613005,0.5645401315552203,0.8915049255860299,0.5695387246298785,0.7005846203379984,0.5015882461922003,0.6356972470598787,0.26637723181327244,0.4746729927246689,0.2818475395192286,0.9108417275065036,0.768317140260416,0.7040005775725502,0.25568335612361853,0.7459387030927044,0.45827033858483357
10,3.9194797775634562,0.5615601862453248,0.7223407193614393,0.25108832144638327,0.6519509020945743,0.029366625478105465,0.8817883298913961,0.5812035263111739,0.9601030517247506,0.4591919667543349,0.8925001185060432,0.6765668707352213,0.4381252484300481,0.01865355754928252,0.6792147298335893,0.5547866273962241,0.9778506993556499,0.8465652241164245,0.6929011355321083,0.3243396960087919,0.7786958796441839,0.6645490302102608,0.5317813028193377,0.05330653083337303,0.5203916970673157,0.02480929270904425,0.9382487368678077,0.8262635053727251,0.8063739379535187,0.3384154309321187,0.7380842466693316,0.10084774201940562,0.5218203413346327,0.03737607168232591,0.6059915146092743,0.027787669728753583,0.7553258617936914,0.10259501234299662,0.7506765054617754,0.22108417386785514,0.9246511096101278,0.5706254205243094,0.924096845694173,0.6319355146298385,0.8410116102730275,0.5014324165848986,0.7515420238421726,0.3564904648742658,0.570054945054945,0.8534831303005588,0.5837540337148108,0.8628817655996257,0.6260476422886405,0.656511345355876,0.5057158826654443,0.6623521397163561,0.2874649702542676,0.7417946181134427,0.6242900857025211,0.9192798192068986,0.7688378758761748,0.8185232724455878,0.4041233206396019,0.7878322986769064,0.54289054444878
11,3.8725649285576704,0.4590489275627815,0.7112270296596042,0.23287993410771374,0.5472776766750742,0.024931673174781746,0.8990949349283356,0.6199074240534956,0.9873374101301705,0.6602777274405733,0.9016777144506268,0.5501236497788039,0.4059216274459533,0.016274221387484595,0.59933002756616,0.4018327337138461,0.9759375556603278,0.704050250947897,0.7234058672847157,0.3587156927847003,0.6640731630304939,0.5105831431361504,0.4429606340462125,0.0369662633188641,0.4211631514365754,0.01596915897184063,0.9488211843799403,0.8627775147472442,0.7843717896251746,0.2724075619657309,0.6973745443263786,0.12332369226088838,0.4407596429869988,0.02575913183566734,0.6119402425874597,0.07132929742098612,0.6304852240936476,0.08172386605763506,0.7194519801606251,0.23481828785219616,0.8510892833322393,0.43451324932810687,0.861633388248619,0.5164211655070555,0.7608594430160706,0.42642985149127033,0.7084633415941547,0.3264552496037696,0.49954212454212454,0.8747375882114219,0.6011733494425975,0.878869947679266,0.5210534975400078,0.5761627954452926,0.3710990366478156,0.6797905237014241,0.3051115743708561,0.6402108260862436,0.49912275295721553,0.929942049977376,0.8254437599227855,0.7413575677094337,0.3420994581752752,0.7601530426872083,0.49501477557950757
12,3.8146206047250866,0.5848408518433708,0.7427269577496095,0.22846642442025578,0.49826262985616054,0.02121412468866214,0.917878212127737,0.620475127986595,0.9780459259010672,0.5725409026984054,0.9082641234805084,0.5633249535796969,0.4526526187283027,0.01919417083314439,0.7100168016374847,0.5107588669213563,0.9852983393577454,0.8301410492458676,0.6675633060010937,0.3363113897147638,0.581579877643371,0.44665575599712337,0.46715497955593044,0.045154608773880604,0.4515999616339949,0.02025244421671603,0.9510431737169328,0.8564898887230129,0.8355074693772125,0.2618962765459217,0.7400691490313767,0.11027133366971889,0.4196727721791723,0.021513656582594316,0.8013861070085402,0.23864786683849182,0.7374193188632422,0.12466518785731412,0.7811960705431903,0.31282009369861197,0.909674072537017,0.5027162425402834,0.8981903376662198,0.5949060332608064,0.8219701513463831,0.4813962640349669,0.7389623798155587,0.3509005755830995,0.6133241758241759,0.8975340268259993,0.6556307542157722,0.8820190690337368,0.5185337692666664,0.6889508330971054,0.47729205323071,0.6217419484349607,0.2787125319358191,0.5450234220839916,0.43213585727313686,0.9330074553470706,0.8166185106208961,0.8034507592771112,0.3886825328792005,0.7673896448714251,0.5096580013460287
13,3.8002151826184885,0.4544691244943134,0.7340589433153122,0.25945633527591616,0.48760123573349634,0.02341581045378539,0.8925192153805455,0.5859766703857165,0.9869374128938775,0.6692384744177902,0.877506446380198,0.5894050416885002,0.4140326519761961,0.020441777006474156,0.622442095422761,0.41526336671235364,0.9834271046152234,0.8002910721680625,0.658470775206836,0.28375304232648557,0.5946849167476911,0.4137837285957705,0.46942400769659093,0.04252784450416205,0.41547902934007164,0.01686514443926851,0.9489320687965208,0.8643294616265479,0.8186611138906799,0.32375578874835,0.7555460178152724,0.13470503720844182,0.4502867393178329,0.02321271616523578,0.5853844315110425,0.0870735194347768,0.610349812324515,0.08932710031710814,0.7542111332786684,0.27835224776764705,0.882440824675036,0.4394239393310799,0.8778727539632879,0.5121385156863016,0.7478557215212172,0.40780934018697734,0.7076420205364943,0.33093390792939786,0.5002289377289377,0.8785247693606679,0.6031720464183661,0.8393505082461079,0.5064865129493236,0.5981952770749268,0.38388622292593944,0.6123246978727765,0.22241685215240084,0.566251701312402,0.390650103285407,0.9299007906581922,0.8165108044864483,0.7243055666513396,0.30654305737833154,0.7355504730252018,0.4613807999423166
14,3.7598912418912307,0.5158384856117854,0.6759314795808302,0.19576793688821473,0.484153101420455,0.01813068212098659,0.8855601636450123,0.5976149835976068,0.939268402340465,0.3737746103627843,0.8365846540948021,0.4319141290541178,0.4308411691818864,0.01897482987328429,0.5569001978320125,0.35466294742078497,0.9792716224003353,0.6983584713319073,0.7269504095410072,0.38823936249491553,0.58458422745152,0.4020272926540651,0.4622357179805675,0.04130709404620296,0.45260376185294576,0.026483019743101716,0.942451297017368,0.8374673665929184,0.8016665810024535,0.3056203877232061,0.7089711023871035,0.1314618422626198,0.42508511047856223,0.020886297733573228,0.5134511876474771,0.07398000736592421,0.6288919400726567,0.08613640126578961,0.7420307024274899,0.29136533704860906,0.8684272988864726,0.4708541333230464,0.8024291667853487,0.41710006552602313,0.7519508038872275,0.4239823201724167,0.6909200044506364,0.3002777053910045,0.554945054945055,0.85766657019321,0.58737754012266,0.7988309903754253,0.38240864027014915,0.5371860647696107,0.325431703753868,0.6804594853746719,0.33353122565370813,0.5584905737727319,0.39058843410969546,0.9191840876143512,0.7897611442530583,0.72234264846603,0.3174054954691802,0.7248800600808616,0.44664345480461703
15,3.7059689586503426,0.4851538050530494,0.6420030365629638,0.19707752424426173,0.5435459986894657,0.021331795445288355,0.8832664606305536,0.5831427183118026,0.8573286847123573,0.2292092318825366,0.7884950325055105,0.18647591527021204,0.399832689646223,0.01583433540830561,0.5715873848051358,0.3200828349396432,0.9643738278589764,0.6821994219050276,0.6812924023455174,0.34125652978288334,0.7468271626682238,0.6042723336701965,0.4735264125517691,0.038033128512388506,0.43006770276929795,0.01702909322633387,0.9375070804949743,0.8231548947371189,0.7912874940875427,0.2618800990508247,0.6562900858545782,0.128264812274878,0.4863434994750629,0.034581617016614184,0.5759378402417633,0.02651434491395279,0.6513382534942759,0.07381945708039163,0.7153063013702375,0.28711337698660416,0.8337357050751352,0.4478956972412207,0.8450339951038719,0.5216203256263421,0.7569950441983686,0.3505628845247788,0.6923600952337184,0.28142510782052754,0.4574175824175824,0.8609801543734765,0.5671808159835464,0.7724563727583573,0.2008371282284802,0.5559457690705919,0.29703836859260946,0.6356572054593252,0.27359053734244293,0.7080239085636825,0.5676331373005904,0.9185954879007983,0.7845433606413922,0.7270164886311116,0.2833440165859205,0.7398107695367633,0.424881052096426
16,3.6826322656871255,0.6046103350889245,0.7331141440422569,0.23892869736301892,0.5593514679656464,0.028975915845302763,0.8798053492935657,0.6231896043337434,0.9719978492437313,0.49674560199739265,0.8139796699397572,0.4410515419061124,0.4010705090934059,0.01918376361399873,0.5713171521951358,0.406152686768328,0.9432313898056472,0.5925138598950153,0.6922639631452435,0.36402961491694663,0.6703257031004397,0.4654379881763686,0.4859704425869244,0.0522784096189363,0.4385803255157086,0.019764102210145854,0.9578742525457032,0.8847945784721734,0.8467090953924147,0.38133571546333456,0.7690267974870084,0.13065662331911565,0.4001830305374816,0.019720055180763717,0.6817274109442357,0.21902335467479236,0.6859015253696646,0.11196663460186732,0.7900018354600631,0.3969260046329714,0.9069536697276844,0.5282729839513733,0.8813598592845577,0.5576574356410632,0.805668434042181,0.4871661014195638,0.7221097216690209,0.3393532397273786,0.592032967032967,0.8634071395141725,0.6132004193714534,0.7581520554989062,0.3762311200691121,0.5435338879148133,0.3612357962177951,0.6316797398043408,0.2772550664541581,0.6317192957523217,0.42541864378895544,0.932576289229074,0.832161872553937,0.7711484166168097,0.35286216393134257,0.7331738320472053,0.4626235831981077
17,3.612736167648204,0.5417143729486299,0.7133609587563494,0.2281485025156134,0.5451210723880153,0.023363987881814374,0.8625734507317406,0.5624528402652197,0.952781942530687,0.5197220590806542,0.8836897605899091,0.45875708333073684,0.4631482567533602,0.01954107194055102,0.6100861940617687,0.4361523515590905,0.9316285819058097,0.3790301415645508,0.7202392456144492,0.38893615338497844,0.6465079004119147,0.5024488302304165,0.4961659544464616,0.05733902827198552,0.42062867329692977,0.016817539477426445,0.9611423841366777,0.8944674360330589,0.7973359297180432,0.2830891614424683,0.6873023674146375,0.13189826133079272,0.41902462136182345,0.026597885948185126,0.8068629456534853,0.25238489261555846,0.6241060711400765,0.09031765879608217,0.7657691483431127,0.3586998229271879,0.9134585619215597,0.5646553917419123,0.8755908446754992,0.543943471010462,0.7691400237154671,0.45910534517612733,0.7211665858894444,0.32717585984203973,0.5505952380952381,0.841457434874437,0.5606685286318468,0.8513485444029016,0.4170192025405652,0.5773416018935562,0.400732929428834,0.6663101184590711,0.30725728995993085,0.601179576598687,0.4637081342535189,0.9375615617711841,0.8331275766954664,0.7491630819886721,0.35370901243164693,0.7463374171412156,0.47660323913454417
18,3.6031893580098724,0.6402564689718342,0.7755345037229765,0.32730830002364186,0.6981738419179411,0.04671580950336689,0.9028381441143057,0.6643758190325579,0.9860277337997417,0.6609894999643274,0.9180868366972784,0.7126948374579772,0.5930574077352062,0.04255777919646242,0.7927715024030988,0.6379387914470809,0.9674157891979674,0.6571884921271187,0.74715914120313,0.44357417378139113,0.7837441189808678,0.6468359068818181,0.6591399487992198,0.10718423568701788,0.6056044134135492,0.03910823614572454,0.9513296544088763,0.8654899472309554,0.8783074790063038,0.44980227667526995,0.8551673836130519,0.22724010648856943,0.5694849990747345,0.03870235856399712,0.7518581462073884,0.1423091060256295,0.7930102788471609,0.13855202754029275,0.8197790133428035,0.4526553603765063,0.9059786187518925,0.5057127389127897,0.8848618189915005,0.6206371014373885,0.8861411615545794,0.5453487556617899,0.8057032698083441,0.4078600754618942,0.6382783882783882,0.8700446727915352,0.6646965145564605,0.8744796251267348,0.6240267676577467,0.7661291169275672,0.572785773911825,0.6780372354851867,0.34281313772541666,0.7355786101985821,0.5714481997350541,0.9207374822840461,0.7790528726826809,0.8468627927881546,0.4082789232523836,0.8131242193716867,0.5661574556459382
19,3.561296829912701,0.5823219601557134,0.6923493485608195,0.2531494176417319,0.5620854219023423,0.032835999393687934,0.8742936614450229,0.6306592845552461,0.9141001616768595,0.36033195276778257,0.8638067121125724,0.5776996121789634,0.4934959359836318,0.021016300469620504,0.7058863882722908,0.5084017107611806,0.9683120121535963,0.6995754812808485,0.7552656853025528,0.4555107012395622,0.6566089810299077,0.5294846871751147,0.5573536873457634,0.07561349330464356,0.5228492712112743,0.027895365664743463,0.9601727885340707,0.8868607206858958,0.8553528313757434,0.4511551494506157,0.7626395360630992,0.2180039971353949,0.5432794106570129,0.04041929468252971,0.8162745058368908,0.28476545336575465,0.7452571813457382,0.14280297809083775,0.8131708444175866,0.43593812411549526,0.9325086865290514,0.6125512675797944,0.9445135096809248,0.6831113649535341,0.8459743623697011,0.5326019122562783,0.7629795874457479,0.38456292130678443,0.6018772893772893,0.8548050558469692,0.6074572637483946,0.8321516865520315,0.533567512940582,0.6799925456969773,0.456810663363439,0.7053322598625132,0.35267093489120077,0.6141229427101838,0.4770595288658147,0.9279275730670133,0.8009485335117463,0.80689193179673,0.39032469560223915,0.7744605707903454,0.5169770189890595
20,3.51576971527311,0.634455385085108,0.7719108937104904,0.25110467826868094,0.6463362812753233,0.03299719193459062,0.7913789548167582,0.5089452386334992,0.9787778147368753,0.6181057219916241,0.8509447981423829,0.5287352675997722,0.43737672987629994,0.019812912183682453,0.7530528253399431,0.5908099573069624,0.9776145424066216,0.6328451805373028,0.6973381063941114,0.35761005766013276,0.7585930202337174,0.6279197282677585,0.6301273265219383,0.1336954615030173,0.5450251528852228,0.02569218929656207,0.9573565857865883,0.8702100160611109,0.8275959997631764,0.39304546935945317,0.8241703906114825,0.18704646368609282,0.5460449781330466,0.04238891323754011,0.862307975323129,0.3147686819489885,0.7682145897054243,0.15019770459987378,0.7800182315530282,0.413786411666767,0.8738730803353074,0.4723442325886808,0.852504679131487,0.6032972351741248,0.8695933618262467,0.53149176822729,0.7727343781140273,0.3775841128060685,0.5528846153846154,0.7765108660206932,0.5003210104173987,0.7900764911118665,0.42975178841397166,0.7239111059782577,0.525491782473549,0.6397911003004721,0.2515101933081504,0.7108996048035771,0.5694727365160668,0.9248447166257605,0.7804708806574416,0.8377891043542224,0.40661682489530854,0.7719747127421214,0.4948050309545552
21,3.473409339668423,0.592931837264331,0.7534625479672351,0.304555605403463,0.6044292106235376,0.025383385662665486,0.8511965525081229,0.6239032805121594,0.9609590606159908,0.500809022574511,0.8650754238682324,0.47305034621452113,0.4969342708424543,0.021379071715028907,0.7974134999288034,0.5895737887419511,0.8887271203310808,0.4533423397630178,0.7578999417751497,0.42258539460716177,0.7514426313756577,0.6308020695049623,0.5792484456906011,0.10859856419512233,0.4612959771920715,0.019703304350465398,0.9552219799478694,0.8707442485355054,0.8925913901610206,0.41848667642587883,0.8157143261996671,0.19612693959038252,0.5135525825136906,0.04584311832389841,0.8557266271471059,0.2579140665615115,0.6995560906143953,0.1332197641801558,0.8201312371035004,0.5017757639673813,0.9349955429265927,0.6659965051149519,0.8810068762023247,0.47969203625907353,0.8338830692056637,0.5039848054432063,0.7713847456700352,0.37488500443849887,0.5576923076923077,0.8291885625534691,0.5929859420441197,0.8211057947900052,0.4084444488076331,0.7735688379803155,0.5246264251713523,0.698209126068043,0.3067119899469175,0.7004085882796657,0.5750624488687641,0.920709311268531,0.7909426709529109,0.7923259781599462,0.3419368794315544,0.7907880284428536,0.5058158293176074
22,3.425925338716873,0.4819479429051218,0.8205663402388719,0.32911304263825075,0.5784317526343715,0.024706272471587118,0.8882077994106985,0.5951169824837567,0.9789727547841742,0.5712455917200294,0.9022171347887734,0.6279952213143021,0.4404142695069951,0.017590864910149738,0.7529930999579311,0.6007853782368737,0.9848302163549689,0.7975523202654391,0.7303779734506486,0.40044627749353395,0.7136313794770426,0.59221797465995,0.538596624175071,0.07654238596143731,0.4551574163802997,0.022072087973802817,0.9659787522462913,0.9073651524700604,0.8816031656288286,0.42946077394886517,0.8046133411690302,0.17346098773447585,0.5160366181963925,0.04953383889228298,0.8335137340589827,0.3496316300336076,0.6891297030310446,0.11893262143682219,0.8107574024241061,0.5039410385876987,0.8926120567541073,0.5540123488435741,0.758948235988103,0.38324178970003875,0.8464125412758777,0.5407711538548872,0.7629091959969369,0.39389707889233755,0.4178113553113553,0.8644579826204262,0.5926718652402576,0.8676105315449578,0.5189143990283925,0.7160916704288149,0.5139842164426157,0.6713209243523405,0.29508714535708896,0.6526453016447387,0.51311827995664,0.9250091306499402,0.7996860296247221,0.7922963894022537,0.3676172464006115,0.784204561520496,0.5144398831500469
23,3.3729903249374447,0.4562247156705595,0.6680235047624028,0.2499906143562825,0.5818755159658653,0.03585136244754936,0.8854128473987833,0.6773507603402278,0.964338679461314,0.5402408261349794,0.8479591865187527,0.5072772768290763,0.43194575768093735,0.018286206015792988,0.5831666777215142,0.4308861478472701,0.9293957776730053,0.5992822829335939,0.6794211483573117,0.4257321595156441,0.708004124719837,0.604629300387065,0.5432047767626215,0.10256254011838623,0.434955730260525,0.018253306099637108,0.9670498993649074,0.9091264924366548,0.8910988810085043,0.5209358514606505,0.7618866677803697,0.2570884337569574,0.4861231095988625,0.06143828563627832,0.6616469181261704,0.1461619809156072,0.7013455584824472,0.13832960318228,0.8307697276922388,0.55710453516476,0.8838719581268011,0.5654881874562353,0.8802872041871602,0.5909022997406045,0.7927717856644255,0.5401751013768706,0.7324797926052163,0.3862315251887456,0.5842490842490843,0.8646860107906756,0.6461310489345682,0.7925930283566176,0.4360821663880582,0.541928121387317,0.36891623253068645,0.6086961280306152,0.30822750822218054,0.6551053037218431,0.5228786746587927,0.9204132663045984,0.7838980439899231,0.7435394427016666,0.3616918257985085,0.7324230430419049,0.4896893572175311
24,3.316849873117086,0.7332264712617358,0.6916337623963025,0.28314868807892735,0.65706000939571,0.04526491945631669,0.8097451702423372,0.5195397374098495,0.9767847378229095,0.6217307625401624,0.9547171417597172,0.7833598102645708,0.5322513384513337,0.03346208476126376,0.8168261961204365,0.6922727032584193,0.9880377180575199,0.8466232647417431,0.7806940608685732,0.5273159728737044,0.6929369823477545,0.6276334448508116,0.6916154603951752,0.2096629533242239,0.5439092313238587,0.03360996731399562,0.9657735549338744,0.8802534043148896,0.8791727959953389,0.49171792308468526,0.7613081263535968,0.21540410262628495,0.5703334303544744,0.05224233072782946,0.8120777068164123,0.33523292869582083,0.7636110064985582,0.15639979858396993,0.8448234728339947,0.5715219940645268,0.8917864924208577,0.4321327479150617,0.9151698193186033,0.6833285818670366,0.8631875792787455,0.5448437924144871,0.7910661724539129,0.43575917787129903,0.6160714285714286,0.7684350012079115,0.49617514441433447,0.9222626030218783,0.6611821414940773,0.7794474133335201,0.6117035356612229,0.701732786916754,0.364417341347548,0.6280436410545129,0.5379664642739231,0.9220215071991902,0.76625088363867,0.808753064655578,0.38014065176309286,0.7900994310556209,0.5454051660846956
25,3.278946313191239,0.628196320891535,0.8454553700422961,0.3949225893584318,0.6671820624039335,0.051157633884063004,0.9436746907224861,0.6715814533670884,0.9817145001835891,0.6154996945322195,0.8715238953494046,0.5398204775378284,0.5204624468257333,0.025121023405579562,0.7385750260481196,0.6019233961417991,0.9894259521190214,0.8754345163267441,0.7212121083592,0.3814457067817526,0.7805199089203155,0.7021000920216237,0.6111393820981776,0.13992857792975938,0.4948549864230646,0.0267430691176681,0.9707454328242273,0.9195701068035704,0.8915077920818941,0.4604356591767106,0.8743494904808213,0.2786308035349048,0.508848142076147,0.05409482900413559,0.7152639620420388,0.18129062617071295,0.7118067761138072,0.13618183720074326,0.8451596320466542,0.5389203218287096,0.935979910350362,0.6512291555557985,0.9044172348852032,0.5183446065454715,0.8363888018416337,0.5279789768447755,0.789100341101733,0.4223797796850041,0.5217490842490843,0.9144352196684661,0.6211958887756087,0.7962570775340404,0.4597155240448303,0.6979834885438212,0.523068846354701,0.6474870959268616,0.25254715959449864,0.7203345777738908,0.6204886470417782,0.9227843683273023,0.7932218923376898,0.7851631316977851,0.3495735743342061,0.7834921370674525,0.5171159332119019
26,3.2278016824211275,0.5978169605373636,0.6824988232909937,0.22374239411013594,0.507438650423339,0.027434365588461084,0.8571899353103003,0.537837893743673,0.9174380781576339,0.2947989340466598,0.7368283582869881,0.29758866727411964,0.45283498449418547,0.018204913942642988,0.6224394182458981,0.3832548613065515,0.947097071611923,0.6638070972325714,0.7061613349620555,0.3786927744109979,0.5862697131498344,0.364353881499295,0.5407246360098976,0.09026478778414546,0.49600894324807915,0.02388112786648938,0.9734186341704816,0.9307267226679828,0.841905935488992,0.36113736097589494,0.7240944698673699,0.17327424636873567,0.41702588511643,0.020671499820669383,0.671179869452069,0.21113368242076935,0.6484889691288828,0.10956197353655658,0.8095356422760115,0.5323976013647866,0.8994659981409452,0.599394522132893,0.821885655533228,0.3761960938315997,0.7509686312316765,0.4216030980176546,0.7095863471635098,0.3199981136337857,0.5343406593406593,0.8144002181416341,0.5126604881609342,0.6593284004845696,0.22125593402719668,0.5828270473377406,0.324884113219717,0.6149941379096789,0.23132770633386082,0.5407292822511437,0.32976250337321655,0.9262480320800555,0.8099117191326026,0.6923100594083077,0.27944137919786755,0.6901195968018757,0.38703483477791367
27,3.1895525013888193,0.7204030226700252,0.6563788251214298,0.23763230069734495,0.5897043240029981,0.04316090604998918,0.8391016699062263,0.4667167775783564,0.935239805869324,0.39397185496664433,0.8534305059650366,0.4714915292464099,0.5136975903151495,0.033668829156871874,0.7274077263129556,0.5219458827705176,0.9510074912253128,0.5943550305249944,0.6987116645422464,0.4145678774911959,0.7189047540842883,0.5764139333931322,0.6244010101775553,0.1512524856285452,0.5577094172005383,0.031841536490647956,0.97838317505165,0.9357476986588769,0.87295682718839,0.4286573055431589,0.7362451449504501,0.2546425220186632,0.5425317589250925,0.045808506143809546,0.7638043084863648,0.29136223149450735,0.7694672002641322,0.17739717791783272,0.8298461870795233,0.5680982885798492,0.9088025611762439,0.6649288373308105,0.8912438450010705,0.5302422595108421,0.854215217564545,0.5911097592083305,0.7642359550186602,0.3829551604727878,0.6066849816849816,0.8157966913590877,0.4585045577524699,0.7986145609096429,0.3782467516213022,0.6777011349438827,0.4393071887361749,0.5961073157605875,0.24032034439298036,0.6469775399432622,0.48261505169740204,0.9275260737706654,0.804261851723243,0.7699746305991546,0.37159843490373967,0.7475282781837548,0.4535505972610446
28,3.134474331564088,0.6460575528585604,0.7414828331230511,0.27746776887558017,0.6366072365210332,0.04772025750980858,0.9297817476994144,0.6057772055097079,0.982945830355768,0.6479395600388528,0.8365739362688442,0.5446716046461748,0.43184339347728995,0.017893045973817516,0.6402482096663673,0.4916364101682076,0.9805649326837446,0.7940241863161476,0.6940931098462944,0.3728522230819555,0.768015955787271,0.6884532142309671,0.6234888521338602,0.1595892904418047,0.5497292881452353,0.0222542241923681,0.9799704990386269,0.9452360083645531,0.880655871240832,0.3583172960744591,0.7571656727860677,0.22955299168444132,0.5431496875020342,0.06734419108323261,0.7052911551566134,0.23593761892109555,0.7750598381919697,0.15347201458465864,0.8578261863754175,0.5583545883045818,0.9412832983613638,0.6861443233589101,0.916243316674982,0.4664309919939549,0.8513773006190108,0.538796732787787,0.7737908250752316,0.4049938976428667,0.5618131868131868,0.8988647226866503,0.5843331261645545,0.7803393439717858,0.4571690606442433,0.5862578932203173,0.40584419631061885,0.5897487095926861,0.21855768750156396,0.6931001874859932,0.5809130464770189,0.9267306788591487,0.8160911258517296,0.7917797696929455,0.31226700261048407,0.7524030436442182,0.48216789222288764
29,3.1117956188378213,0.5005724753835585,0.8210107930364976,0.37999698100353846,0.6325627482907562,0.043087962970092604,0.9229357356577699,0.631751982120115,0.9906390529565742,0.7305941688909272,0.9338586839834203,0.7302091224923476,0.4097594976657812,0.01687014186391824,0.7043361568408976,0.5992378435915084,0.9806240243071926,0.779414142498672,0.7036285970073215,0.30182006513424564,0.7673651093331255,0.6959685631647485,0.5731659643307822,0.13714719335702458,0.41127960549163056,0.02788804484681103,0.9644341431461174,0.8975256096366848,0.923663752131575,0.5110813124615832,0.7383829328973981,0.1567250091865941,0.5275673328268395,0.06869512312996343,0.7445780496339907,0.24772259182708542,0.6251357185447379,0.10852310770907568,0.8875591013013309,0.6202702656285052,0.9190802971946904,0.5133414381242402,0.9326422521821399,0.6523746750542382,0.7504465374399398,0.477138649511337,0.7665752766454778,0.42397199973651173,0.4084249084249084,0.8873987327693225,0.5825736283932118,0.885123161438951,0.6036683674435392,0.650221995910049,0.5025545439511372,0.620835940486436,0.183755488504055,0.685765276282202,0.5620867212681171,0.9073036473986061,0.7608838526820421,0.6912638009363066,0.29098388514114404,0.7611303650316962,0.4980723553404638
