epoch,train_loss,train_accuracy,train_1st degree av block_rocauc,train_1st degree av block_prauc,train_abnormal QRS_rocauc,train_abnormal QRS_prauc,train_anterior myocardial infarction_rocauc,train_anterior myocardial infarction_prauc,train_atrial fibrillation_rocauc,train_atrial fibrillation_prauc,train_complete right bundle branch block_rocauc,train_complete right bundle branch block_prauc,train_incomplete right bundle branch block_rocauc,train_incomplete right bundle branch block_prauc,train_left anterior fascicular block_rocauc,train_left anterior fascicular block_prauc,train_left atrial enlargement_rocauc,train_left atrial enlargement_prauc,train_left axis deviation_rocauc,train_left axis deviation_prauc,train_left bundle branch block_rocauc,train_left bundle branch block_prauc,train_left ventricular hypertrophy_rocauc,train_left ventricular hypertrophy_prauc,train_myocardial infarction_rocauc,train_myocardial infarction_prauc,train_myocardial ischemia_rocauc,train_myocardial ischemia_prauc,train_nonspecific intraventricular conduction disorder_rocauc,train_nonspecific intraventricular conduction disorder_prauc,train_nonspecific st t abnormality_rocauc,train_nonspecific st t abnormality_prauc,train_premature atrial contraction_rocauc,train_premature atrial contraction_prauc,train_prolonged pr interval_rocauc,train_prolonged pr interval_prauc,train_qwave abnormal_rocauc,train_qwave abnormal_prauc,train_right axis deviation_rocauc,train_right axis deviation_prauc,train_s t changes_rocauc,train_s t changes_prauc,train_sinus arrhythmia_rocauc,train_sinus arrhythmia_prauc,train_sinus bradycardia_rocauc,train_sinus bradycardia_prauc,train_sinus rhythm_rocauc,train_sinus rhythm_prauc,train_sinus tachycardia_rocauc,train_sinus tachycardia_prauc,train_st depression_rocauc,train_st depression_prauc,train_t wave abnormal_rocauc,train_t wave abnormal_prauc,train_ventricular ectopics_rocauc,train_ventricular ectopics_prauc,train_mean_rocaucs,train_mean_praucs,valid_accuracy,valid_abnormal QRS_rocauc,valid_abnormal QRS_prauc,valid_atrial fibrillation_rocauc,valid_atrial fibrillation_prauc,valid_incomplete right bundle branch block_rocauc,valid_incomplete right bundle branch block_prauc,valid_left anterior fascicular block_rocauc,valid_left anterior fascicular block_prauc,valid_left axis deviation_rocauc,valid_left axis deviation_prauc,valid_left ventricular hypertrophy_rocauc,valid_left ventricular hypertrophy_prauc,valid_myocardial infarction_rocauc,valid_myocardial infarction_prauc,valid_myocardial ischemia_rocauc,valid_myocardial ischemia_prauc,valid_sinus rhythm_rocauc,valid_sinus rhythm_prauc,valid_t wave abnormal_rocauc,valid_t wave abnormal_prauc,valid_ventricular ectopics_rocauc,valid_ventricular ectopics_prauc,valid_mean_rocaucs,valid_mean_praucs
0,5.474989841970885,0.4112663155484314,0.316608920761723,0.026075668879163256,0.37356613251827114,0.12307246953124189,0.6332628655090787,0.022209344053744022,0.4543381170394758,0.06638662577275986,0.5807075961945556,0.08869571501692794,0.5847150306481061,0.0670186022482605,0.8081025108642158,0.18105020931255672,0.7119740605958289,0.03315121003926079,0.3827514005366815,0.20477503174787548,0.7190766409974332,0.04491718637185908,0.6731764839960345,0.15202690263420798,0.7395869889313527,0.39600670977533836,0.7284938293703005,0.15540751374584594,0.41929954762759836,0.030743748005336354,0.602388945298676,0.02782613404720604,0.45444772932364086,0.017189490898664853,0.4432210904545698,0.01659925461630428,0.4649060506785126,0.02557093516751854,0.3924925947656439,0.012701426481483858,0.5755790855646314,0.05105318267139574,0.5465489078329028,0.041607014584691,0.574188675010534,0.03147994785802278,0.7732221300648174,0.9449707028976118,0.32204622072269495,0.026742789995485888,0.5344045296945237,0.05521800706013054,0.5562830708833622,0.13001115894490267,0.48814108939479495,0.05550448385213008,0.5501307498251836,0.11214857282258985,0.5045787545787546,0.36185926942316454,0.12710590238392927,0.4420190539063379,0.07503080971496232,0.5882541459600125,0.06174871695245525,0.8101626707105568,0.19385587307447305,0.3668750721807511,0.197435981858402,0.6846585145527193,0.1568266909954931,0.7477093092534995,0.42243149503046235,0.741310305080554,0.1740872004060531,0.7779602780461297,0.9483116963002424,0.5846220716746231,0.13232874340902898,0.49703745905141716,0.05504634331467487,0.6002243772581605,0.23129176849456148
1,5.126536646814494,0.34913365391954815,0.43846498310115123,0.034220390182430754,0.34973702557579167,0.11332952157377096,0.6793398525572903,0.025459227454199408,0.45543441974810744,0.06389556209749456,0.7103704246066972,0.13990947739127546,0.6024981927081252,0.062478298524632686,0.9230227876664487,0.5297889203973741,0.6466762500559067,0.026133800485186157,0.4084881401389484,0.21678956087276666,0.9038345644088219,0.1346488084535246,0.5123760078701901,0.1031993466550528,0.7410458523361818,0.4451983798380935,0.7637997293712356,0.18711372675985183,0.43191729459558303,0.03142038050928044,0.4121024901521741,0.014336258098761533,0.4775538074272825,0.017434871016130716,0.4203212536319649,0.013174253312731995,0.5542321830593648,0.03315445841027539,0.34713820381572824,0.011432836726675161,0.6721831474092376,0.06383927169994331,0.5336582188791252,0.0370715513731796,0.6204724709549148,0.043246756436952194,0.8002199285268127,0.952713385706754,0.33646822126235326,0.027736709609239473,0.4847201274819162,0.043750595016970886,0.7195144201184814,0.22376195880826516,0.7873410424626193,0.12121746687583321,0.5827011496267576,0.1376465101587647,0.38278388278388276,0.3419932536103634,0.11868502734961611,0.4440828683073533,0.06679789189807794,0.6038423573751298,0.06939568362169356,0.9172041089642471,0.4926924611090141,0.39204121914600987,0.21131248080385362,0.5097474602947489,0.10788298260721046,0.7313471934494691,0.44677946821092707,0.77225005741238,0.20770601911994752,0.8010498430141288,0.9538502107453607,0.7333606141679256,0.2275747520973268,0.7760611024070646,0.11853360150258992,0.6384527343771654,0.2746555071877834
2,5.012499143600318,0.19929776352950157,0.25406675535566026,0.022806897900593218,0.3017213386190966,0.10113097969900685,0.5435936994011376,0.017948743591393347,0.26357656862174894,0.042820629814298565,0.7401323713039061,0.19290924995336234,0.4970589665998976,0.0752221552917136,0.94323926509523,0.5691864271981287,0.36275543018477846,0.015212183522651457,0.23852526300910004,0.1536319882679183,0.9152319136675573,0.1707093874534834,0.3812803479819975,0.0860065562161832,0.5165604107914913,0.2771657002180108,0.5295218780514195,0.09861732768144901,0.36877164254343336,0.02921998929180214,0.31238229739607276,0.012090839276081171,0.39396711405073104,0.01406221400118527,0.33444392902529096,0.010917190388955608,0.41624487268067556,0.020996463647088133,0.29568802925976134,0.010420324529125172,0.4890870086802242,0.03466615229329444,0.5520429832617664,0.040667303832133565,0.5335257673894678,0.028263991727579294,0.7973450885223072,0.9534560717949169,0.310223278261847,0.02607166875340814,0.3330596713106708,0.0316047988594595,0.5428998000542855,0.12474208957133208,0.7552658336511033,0.12613432128415233,0.47860042684335774,0.12172894985402616,0.21543040293040294,0.298354227177321,0.1068680239994045,0.26290531807936496,0.04435555656299431,0.4700248479850271,0.05808535306703366,0.9324823588197185,0.5288431626731982,0.22652740302115085,0.1516068147179425,0.362020114764566,0.08671947080767564,0.483428260643793,0.2700611030064096,0.5303140125953928,0.11029689495310796,0.8023313911363361,0.9556642054643939,0.5540193072561693,0.11362130541719659,0.7432045699635786,0.1356574381330532,0.5150556192220381,0.2328890298911282
3,4.8879961947085935,0.41546446836119383,0.4031209754917663,0.02930294696938112,0.3017450085823436,0.10176493407794042,0.6670296481777948,0.02529357628865481,0.5835590328834293,0.10266398441118949,0.8676342734893058,0.46905561436717985,0.8122817342873973,0.2504760785177512,0.9091007674311934,0.30238676647425233,0.6674750814031644,0.0370522678090662,0.6241220644674573,0.33794752595540983,0.9230023573785949,0.17386816230700577,0.7017182785213248,0.26144822888107333,0.7260554716526785,0.41991751605963445,0.824206881397545,0.34806089275459434,0.3965736002978475,0.030461466401674044,0.3948619319929486,0.014260769113102527,0.5015819686156685,0.02025191337669377,0.39361102327440656,0.014635116148184614,0.5089250925497993,0.02664954901012765,0.6587687491242228,0.039213926547972296,0.7115803384294241,0.09819253976095349,0.5674212845691129,0.04493187437876197,0.535540872739438,0.029568488463199937,0.8139785170849587,0.956778494692696,0.3743433825549482,0.037741571174581844,0.5721016269110702,0.06472943064909366,0.7570686232626085,0.302099314541609,0.8492987902131747,0.18925325517180192,0.6313595324734677,0.17511134090013283,0.4951923076923077,0.30163832535752705,0.10841506317634642,0.6012106222856874,0.11985324805039697,0.759886848728544,0.22126078624417356,0.9001686406777002,0.3111245024562674,0.6209626899884861,0.34497616450084984,0.6954230315015281,0.23474724984887757,0.703017813902387,0.42471966640357933,0.8321692605285471,0.38307680459174276,0.8118886607897596,0.9578219788499638,0.7676806142152677,0.30861623240207103,0.8391463365007019,0.19986412866233683,0.7121084404069215,0.32858871138060053
4,4.601444872051111,0.36768185634684375,0.32821404990553643,0.025222031886303585,0.28319674971765924,0.09902280815674822,0.5944998608887611,0.025476735810685377,0.6295263053395392,0.10470746141329126,0.911818987433499,0.6905890568700327,0.8249046024415417,0.429335666860785,0.9088498570259442,0.38547304301482915,0.5538835718996717,0.02159343214410618,0.530365026737371,0.3132174873921054,0.8805517313636125,0.13273154806109658,0.7037936145436234,0.20602533762545858,0.7450739000303603,0.5561062385859814,0.8792181887642311,0.4593622080694908,0.39692968294394604,0.02977057962058761,0.5480029832876359,0.02087984582819183,0.501524226598543,0.019685191125608757,0.4394489183158422,0.0148346868381436,0.5120894773598224,0.03201463005661486,0.41289698462903385,0.01401463292494947,0.7726197009598855,0.1179887854057168,0.5591464187849938,0.04404776398828451,0.5778282301077955,0.03495630701467039,0.8270237254118924,0.9606139520127416,0.46887990887676656,0.04274075305429618,0.6154015327530785,0.06940585098363883,0.791959000642918,0.3839900187110852,0.8244055448715599,0.16957232344288065,0.6304463993198172,0.20012512507030833,0.42788461538461536,0.2789793151529401,0.1045969325998249,0.6466552014740506,0.12268346401220748,0.7745371181465069,0.3903027997632751,0.8920154957687314,0.3836499883781716,0.5245017924157425,0.32427100056517244,0.6895566700764314,0.18694699240389773,0.7126061099662744,0.5470959966336655,0.8880185331578575,0.47973954970706334,0.8284853882381356,0.9615818793651689,0.7722727894091185,0.3621535154516117,0.825334201477201,0.1726074327545323,0.7120875104802719,0.36687541378496286
5,4.485587876513299,0.5249217616975803,0.48990906654289434,0.03954289805125363,0.26670657716928986,0.09786536317110574,0.6354751523002005,0.027836098904549036,0.7195486106236527,0.16925971425285147,0.9278658251425297,0.6576349809521321,0.8835035430626721,0.41347925842785105,0.9465250194140781,0.5620074963349674,0.6190026387916867,0.029585801579415587,0.6348922334093241,0.43193636988005857,0.9142117449840224,0.17001371833176737,0.6978805527525012,0.2224127946794465,0.7207124887197571,0.5339102345772837,0.8314590243205228,0.3718874259175584,0.4016637782485643,0.03109672615699808,0.4942001184054295,0.02067207121466274,0.5885476272422607,0.02837873656629676,0.5186333967746362,0.01963683951668288,0.47899124205968757,0.03060421536832285,0.5163282326573645,0.01836905437904147,0.7416535001740656,0.11373282304395725,0.5813497604160649,0.05200596752255021,0.6182875521668153,0.044061784422434275,0.8397996907607082,0.9626354499696115,0.5592755837697001,0.0819854417020572,0.5849298633550577,0.07104879673633643,0.7764077838021802,0.3737545710964578,0.8491137426943469,0.22175278988056882,0.6606249759170375,0.21470768231985995,0.5542582417582418,0.26260658940798887,0.10304827096959514,0.7273317275685262,0.20569445273958564,0.8417580750609983,0.36312674576326104,0.9284046969551716,0.507491557959667,0.6165458112999768,0.43884184637204215,0.6753923542966239,0.19395951615760704,0.6856532219713906,0.5232834211916895,0.8385111203363481,0.3882493874999505,0.8373603731433401,0.9622984396033818,0.7611104305696842,0.3228928577279262,0.8415152501678638,0.23763465793791252,0.7287445137070829,0.386047377629329
6,4.413986121358858,0.5453782154034044,0.5021907216494845,0.04161563363908037,0.30407546935611807,0.10245522370132902,0.6555753960109282,0.029090464006066373,0.7521810279647441,0.19809798215284,0.9391582896702945,0.7111105880517662,0.8958475512579764,0.4999637577164058,0.9244337938106384,0.43754673149334516,0.6084188100681023,0.025569610968623077,0.6605761758387936,0.43840853565041416,0.9337773586882497,0.19984031261550664,0.6509362755077954,0.17737294134461432,0.7179128002244497,0.5251021963899101,0.8438012187644849,0.4189452231987621,0.40682479382954817,0.034840077259238045,0.5543981994436928,0.021536765392624772,0.5580702520284526,0.026871470058575972,0.5200171977638433,0.02005912702084258,0.6123343240028754,0.040354031509943204,0.5117947980148801,0.020907291020136123,0.7860561334951842,0.13801138334423063,0.5773237966884472,0.0475634438058297,0.6720455743696048,0.06015818657384906,0.8439576895114633,0.9642910210311404,0.5759401371320132,0.07776263531273571,0.5865085763817212,0.06168768045015627,0.8253641953967547,0.4124430501651681,0.873996733080584,0.2377803525657673,0.6775376774055972,0.2210883598681074,0.6101190476190477,0.30166971388866465,0.10845645451091336,0.7548330411224089,0.2372085356280409,0.8398821910666899,0.43032789082139655,0.9104439563887363,0.44112162557089696,0.6512730643018211,0.4425048373429595,0.6120217164285882,0.15050402613996122,0.6779339098208771,0.5067689583140151,0.8466244832885812,0.41706185488191194,0.8434145181741335,0.9650566432990206,0.8089761638885784,0.3351684082476145,0.8678525647547155,0.2513368726645358,0.7377204839203451,0.38959237340193326
7,4.328280392789393,0.43202808945881993,0.3056391327654623,0.03040572280654602,0.290800244083755,0.10020445722095118,0.5246825527140375,0.017760002243590117,0.5725778647494648,0.1174245371995066,0.920013229749777,0.6726410044279695,0.8138155844668742,0.43355038762125137,0.8632014163563435,0.37866234286015876,0.38070633190317416,0.017569887479387675,0.5260979313243452,0.345909939608988,0.9259079050762219,0.2788961584644573,0.48638720582681255,0.1436245051362487,0.5782560840055877,0.3595148536681453,0.7076515073594727,0.21632288029462848,0.38167875299412546,0.029777020533092342,0.4203500236480117,0.015609451954527058,0.5078226607651615,0.02755456291444309,0.4426774143989881,0.016574041656231837,0.4782183663809657,0.02605282347073262,0.42170496107615496,0.01643809273293771,0.7099014623196508,0.10100282358928067,0.5552419645643414,0.043194172961272634,0.6410237082427273,0.060033271943389914,0.8507414575205563,0.9660443556122733,0.5235518581917649,0.07683006945484425,0.42946431580632527,0.043337494907760524,0.7656941208050796,0.41074700773326056,0.8285629266978081,0.2432525523921774,0.5871248512515922,0.19218275632918716,0.45604395604395603,0.28700737065098253,0.10563413278541844,0.5645004787794274,0.1255149806072997,0.7544183691346578,0.3630226583278672,0.8331118199539252,0.38554252872858097,0.5138581209323595,0.3400449760927239,0.43973632339091495,0.11269607015504941,0.5376568077093367,0.35445989330597716,0.706431732263991,0.23212939625442755,0.848483727810651,0.9660953903710008,0.7473634937458243,0.3363160664205424,0.817100738600525,0.24314566155128492,0.6408789984520541,0.3240547049636521
8,4.257862372376902,0.4760705289672544,0.3912329458909975,0.03115207559037722,0.28969215004355725,0.10036283492420794,0.6190913831610025,0.02723099879545543,0.6950264266748881,0.15720736065649277,0.9520136410512409,0.8097699822445833,0.8852027706831972,0.554608446603872,0.9323752235930196,0.5792704284322577,0.5595350208413519,0.023786941880183356,0.572193692350647,0.3772369456259821,0.9294632510870133,0.25147431740837944,0.5538985569679016,0.15012570117927942,0.7333219578688526,0.6340871989415768,0.8656075054733532,0.5179308464804675,0.4031602643726257,0.03213775035636888,0.49623649334713626,0.018043478085366008,0.567836622947556,0.0297914247016942,0.4904524816686455,0.01935778658433309,0.527848515902013,0.03003822132126457,0.5071772512998968,0.019316590592363563,0.7522452245546585,0.12208716013614948,0.56793329931295,0.04626608807225867,0.6526083936961525,0.06164817989234485,0.8504381982203381,0.9664470163118667,0.6148351209131679,0.09527069496763477,0.5122937265921548,0.055810104963447654,0.805286697708084,0.4493936737758522,0.8501119680714543,0.25363896245274437,0.651004399418291,0.23753671151765945,0.5199175824175825,0.2838753411309463,0.10582045342017926,0.6936688696101436,0.18957052701482152,0.8260886750447605,0.44133759771063996,0.9009319539949392,0.5035655476076938,0.558344211482893,0.3629318267120222,0.5003539677488933,0.12230514124530828,0.6907318786315162,0.5914941199127084,0.86394811687394,0.5069273424196781,0.8453894834561044,0.965593258120495,0.7807857708847808,0.3566424578304329,0.8268281889026798,0.24413324133386471,0.706449677978327,0.3991201375752585
9,4.192028185546184,0.56056789558049,0.5066882015310292,0.03955573845629037,0.2526034467996624,0.09592880542226721,0.6199954161706553,0.023093461451573913,0.8199846977072449,0.22446283501779277,0.9513771470037056,0.7552229515513357,0.912429183296722,0.5935710558138239,0.9401578465639522,0.5600028884044814,0.616032029601838,0.030377948947714548,0.568413551070994,0.31848308216232735,0.9527816019697207,0.3361307691706356,0.5130886352862263,0.1225792589105838,0.6920305557853049,0.4000544140055281,0.8556554198552817,0.392076349037374,0.3738511124802726,0.031116573766516595,0.5915689050143708,0.02823711182101203,0.5637032704427886,0.030110376608723725,0.48131439839149454,0.017883432909957066,0.380309350203233,0.01911425362366569,0.5816610204798847,0.03347852457104764,0.7639681204214588,0.1421583969657781,0.5682310915997111,0.0473233256867854,0.6881141180182222,0.07098443083664427,0.8294760134754605,0.9601459609632689,0.6051260187888071,0.12697672249808079,0.5387258970286519,0.05670987056767404,0.8178839667743789,0.41807724179092715,0.8599010963979555,0.2454232161240954,0.6609285967466306,0.22663996285503352,0.5558608058608059,0.24910172262598398,0.10126013227748691,0.8367437896208912,0.2817359493580017,0.8622218756276092,0.48879171161318113,0.9137804562739853,0.507109051635882,0.5595454741648322,0.3253346903377415,0.4455103221907347,0.09998038373641582,0.6554324476487726,0.38070778265412475,0.8588527681599774,0.4181663677387858,0.8233444783238739,0.958936353704785,0.8038827551394192,0.34863651327502887,0.8422040002441654,0.2433367897459122,0.713692735456386,0.37763597509794056
10,4.084087117338315,0.5807953591328906,0.4201772091077277,0.03448575560886934,0.3284922935582818,0.10709907423927596,0.5955836742698941,0.03095686178463927,0.7818410483228282,0.27361247666998945,0.9465389870845972,0.771487868837953,0.870766831173172,0.5724326590799907,0.8984977006342166,0.4381051363606185,0.5513736016262365,0.028152654224071795,0.529129647530358,0.3495577685354929,0.9727780397087328,0.7654779986338914,0.608866516088549,0.18867312816698045,0.642239205450155,0.42349295450395963,0.7500559023385478,0.26968984834749665,0.4261992151849521,0.03605951232380905,0.5623961885358408,0.024152568871047737,0.5621954718547517,0.034570883508450195,0.48665252910046597,0.020168326526522878,0.4543805742597643,0.022879541363606974,0.4707078302532204,0.01772058174307435,0.7719506420084616,0.14236803687853664,0.5806305300924873,0.04786284924361836,0.7088694702117163,0.10171711460077575,0.8473275786153862,0.965717094085133,0.6730176056629207,0.189955216948842,0.48833932528531765,0.04791276230069327,0.82939558513631,0.4767532105271913,0.8533058424142205,0.3054269150699366,0.6522855202040412,0.247647733295721,0.5831043956043956,0.3212466042873224,0.113171639317276,0.7809063880577024,0.3160978744514216,0.7993690791076091,0.4348288634517359,0.8610275896729737,0.3983422788026869,0.5122427303047166,0.33981381096069424,0.5400736338339779,0.13787336885833038,0.5924147430676644,0.3961433886051414,0.7388545457355851,0.26534549798733004,0.8421242905446202,0.9648816647153262,0.8103336960915026,0.37907758130678704,0.8344649724296498,0.27977800850094414,0.6939143884666659,0.36594127063251586
11,3.964316631562746,0.5588123044042439,0.3751979976335074,0.029188148681262713,0.32354479557532506,0.10792959000741958,0.5198442562261781,0.020751558556710466,0.7961990949896249,0.24224704098296784,0.9393812177475576,0.7030664084419207,0.8614828173621388,0.480887352074322,0.9092183149695439,0.4766787586107096,0.4729059276118147,0.01935384161241222,0.5410099687033159,0.32424466088121395,0.9729383414531929,0.8539606348738529,0.5818247859843344,0.2451131023462716,0.5627699142266395,0.3381986456887644,0.7279002093165221,0.2562511118622321,0.39344463627347936,0.03049462936138695,0.4089569738482757,0.014345854426424729,0.5460052608670476,0.028922633928414817,0.4658101220698173,0.019385111226549026,0.38633705981306843,0.019428665197030855,0.5103808160032491,0.06216462870018295,0.7221070636693279,0.1223643567070415,0.571988572295764,0.051834892257332434,0.6981447564278197,0.10471239877010874,0.8637506220624828,0.9692122685626472,0.6596767593794726,0.15711386742701489,0.4291305104542755,0.042185080508764475,0.7560404636919075,0.3832092268203655,0.8610549221035881,0.33460126909502935,0.6243350437318248,0.2384387310225316,0.5476190476190477,0.3124359800688676,0.11180734666337547,0.7952681762769378,0.2900372361914457,0.788372296740064,0.35611133462447875,0.8630488084759007,0.4255208733405642,0.5266225941207829,0.3161467757875699,0.5291620307391359,0.1653790909986544,0.5226102368445507,0.32233249788065144,0.7244741246820237,0.26920085009698214,0.8558341383890835,0.9677506371112836,0.7431843776093586,0.29145263297075197,0.8497070014446457,0.3173664970381992,0.6827927059446683,0.3484641611549051
12,3.891580398751892,0.6086558277994046,0.44957924481430883,0.04871669483210746,0.3791799682799841,0.1236568767885468,0.61873334275945,0.03686333707430656,0.8287028385178744,0.2981423964438675,0.9421829154228656,0.7268806964583846,0.8416161523972084,0.3156175446522434,0.8994247925795699,0.3582829419082813,0.4884274905525714,0.020622247872982717,0.6085090123832896,0.38780004004753293,0.9750128346167949,0.7305477713634227,0.672338456775917,0.26385334013650535,0.6646158950916912,0.48996893999570074,0.7750416762954047,0.24432475614040225,0.43537804231148125,0.035810652026666764,0.5549430959381647,0.02223734779123243,0.5541281801212615,0.02779666768253001,0.5261095018763908,0.025164355395148684,0.5313434855263366,0.03348229817658638,0.5240854638602833,0.03370669332019065,0.8071891591941666,0.1401036655375017,0.5658773789630299,0.046154606686303716,0.7580665617860478,0.10846389711597079,0.8662618499063066,0.9696063976490052,0.727345300761494,0.26086057591143,0.5144338724422519,0.054449858771940675,0.864109744252834,0.4687369401872286,0.8761905487581307,0.3152982887089558,0.6758824743031521,0.24396851217314722,0.5984432234432234,0.36430601517333294,0.1278412787197979,0.8149080990662805,0.3207442638434733,0.7773520124090367,0.212959360508002,0.8765749238139229,0.33496611847615687,0.5844322305864402,0.35824770527279315,0.6296936764168853,0.18654021433454,0.6160524632817155,0.4476076850760457,0.7603601743569813,0.24177852940039796,0.853348402970656,0.965676522313013,0.8367120735742213,0.37228536116840144,0.8504028730136122,0.25654062264072824,0.7240129949693713,0.3477443328866681
13,3.8208394218570323,0.42179986260590796,0.5015347063784166,0.044811199357322425,0.40987345516682455,0.1322598813745555,0.6893824677269527,0.0375320116813865,0.884110794215066,0.46413109946196407,0.9608596838010965,0.8471837186716166,0.9097069273341035,0.5783151663043293,0.9622001884246086,0.7553692358351506,0.6035409195392162,0.04551342634790051,0.7182589205804611,0.5229359861394081,0.9532084446539894,0.3320723822638239,0.6713791790099415,0.29703362484564266,0.7455971599177009,0.5747215443918885,0.841915132636146,0.3760418441665915,0.44516022483534373,0.04096808534228037,0.5479515529963519,0.026255853821154532,0.5997053367937337,0.03224708261056495,0.566160304637579,0.03080999830746882,0.5249190508914632,0.030336266512110382,0.7265226158442416,0.0578109435901736,0.816638356306476,0.15290962831685,0.5829649310916338,0.05542974736261004,0.7931907352159614,0.14432959650821384,0.8898045648634535,0.9751040697136995,0.7484829384363814,0.29729059719766976,0.5053412805908151,0.05636943350368434,0.8548917494980385,0.5210204411017436,0.8626147065455719,0.30129265680263484,0.7154043084419099,0.28629983413083104,0.4807692307692308,0.39548496450366544,0.137985739313743,0.8749592379713147,0.4647914151151149,0.8398255727001193,0.4542502046620372,0.9157791606022838,0.6516737695950179,0.699901892506384,0.5187539846066934,0.6047333442958338,0.18638426558711912,0.6977272106129098,0.5210528238452806,0.8235800372738836,0.3987413446717388,0.8767475999275451,0.9715394434132067,0.8134014584890441,0.3854582960959849,0.8200815919588175,0.24358912034789793,0.7602020064401637,0.44856549156853043
14,3.7001512947268873,0.6285779711472407,0.47127980178990514,0.05467708121171408,0.3987800795401368,0.14344804802500866,0.6822106372206943,0.04873111004089286,0.9216420692900507,0.5153587331975263,0.9681519396587875,0.8640228896064895,0.9194452324338694,0.6960999684975028,0.9484246451441104,0.6401020030131113,0.6349875178664905,0.04165467479210765,0.6713708287799692,0.45832009741554447,0.9773241133637173,0.7060658863432187,0.7445515014536542,0.39031227978020916,0.7116571608856745,0.5764384049910162,0.8265254258796436,0.3216463038766835,0.45606971411250335,0.04457671393963037,0.5828722246660338,0.026363614119838376,0.6285696765601242,0.037383792860619276,0.5994002410371758,0.03943312832146101,0.5063881679463849,0.02747640833401447,0.6510903846975225,0.046448146483733535,0.8195687412946067,0.17372485491112932,0.6126022277768342,0.06052392756640822,0.8222110471899262,0.14053529884959803,0.8952598736419582,0.9762855910523526,0.837445241680855,0.3843479581923412,0.5905226663773818,0.07039342945126115,0.8755919729315325,0.5433964381500351,0.9086627790264508,0.3684638061601405,0.7282446634165182,0.31097150330309586,0.6440018315018315,0.3838754970988029,0.14348415289500138,0.910665579147701,0.5231044613432242,0.8348046986834627,0.47607031828866203,0.9019589045473428,0.5460717356625385,0.6378378204971169,0.41903726109345707,0.6753859476405354,0.25330001332235164,0.6498063646848541,0.49662987779484663,0.8010937058366309,0.30031421820892906,0.8799435454655234,0.9727135572209095,0.8386223237708386,0.39593675248720245,0.8746301910594747,0.33680787521417377,0.7626022344029348,0.4421336566846632
15,3.620364233443104,0.5762918861155637,0.4607844563277526,0.0632655638096016,0.40511835208130326,0.15870174814447197,0.6248078668545809,0.03792850458687701,0.8868876507598547,0.500638221023397,0.959058981837652,0.7993387749645312,0.8702300618741605,0.4708755280208976,0.9156495333650277,0.37811073069246276,0.5322195268065077,0.02763653899372696,0.6429411250840633,0.43417491447814655,0.9871507150715071,0.8872581548159427,0.6647324361592056,0.27187892371648126,0.6797485447367559,0.5098898658650243,0.7766575009984945,0.28560599617636534,0.4486066402865135,0.03856461549479963,0.5413502849337359,0.021552396248403313,0.5482898929023837,0.028826880410940572,0.5549567743975563,0.039602029522506514,0.49514026374251763,0.02788275388015727,0.6712922686580808,0.07733930460775484,0.7766098177007151,0.1579115641571357,0.5794587580327013,0.05514919410451983,0.8025190404905534,0.19349139380107355,0.8679064704737914,0.9710122237694474,0.7795645919224606,0.36819567512559304,0.49182127517725716,0.04978613087150359,0.8345807521242359,0.5608183733535728,0.8474452786414602,0.3557378738457691,0.690575143016327,0.2878212546104113,0.5897435897435898,0.38442684347182887,0.1486934726154711,0.8652457162994696,0.4718186775012871,0.7834486353905384,0.2765064338295387,0.8861827942932343,0.36419379459351175,0.613781215623006,0.38732612579129455,0.5984067714083752,0.1714219281211635,0.607743772786654,0.42370399809485737,0.7598754813807235,0.28268031557600093,0.8540582357203237,0.9673238834819505,0.7852477555447851,0.3655965094014223,0.8201375465440413,0.27870552168589585,0.7235049789511799,0.37617915097203586
16,3.4797596719990924,0.47683382947866576,0.5335871156901072,0.08852025063365745,0.4208680285163032,0.16833516333556986,0.7051983893503125,0.057910480251671184,0.885397076538265,0.496963318315508,0.9626612664059296,0.8001278187082983,0.9252246532431797,0.6701737080477778,0.9344491229158622,0.6499761934397975,0.4739569717581886,0.02202765474832643,0.6464659610428906,0.4884181156562377,0.9518986851066059,0.7127711902232584,0.6388714927395973,0.3514065415376076,0.7607917949393511,0.6504786825545915,0.824828986932077,0.32047359647359003,0.45465362046186136,0.04786547068788334,0.5506456072577898,0.029605429167922793,0.5650131196369053,0.03524139663118729,0.6144404536749221,0.0761258308740827,0.5276003448125152,0.03599725687792144,0.6264590353600409,0.05160549208125264,0.8030518410095597,0.18300977550505265,0.6055796276921362,0.07837021089192667,0.8028902162474618,0.18512894701195842,0.9049795308164122,0.9787783264932542,0.7756418090007777,0.4660829168922805,0.4392530211655369,0.05401323373614704,0.8822363481775699,0.5974577812670652,0.8676105885221498,0.30885635021160485,0.7068242484820115,0.31873041230575666,0.6279761904761905,0.3994445984627028,0.15872448877603273,0.8689810728645679,0.4812139145004163,0.8306245539968294,0.4537121372327308,0.8720691237947492,0.5378314428369972,0.6069902464119605,0.43252150567849257,0.5671769924166548,0.20398520516335467,0.6880738683881125,0.5461193597169216,0.8062668924886942,0.3000996398899556,0.8853467274483757,0.9740414369077017,0.823430272021285,0.40631748989825917,0.8197723157059434,0.2498645248818837,0.7425615149090795,0.4313119223166133
17,3.378628956044087,0.6171284634760705,0.4947240127084573,0.066488537264553,0.34521318595893247,0.11729947972263574,0.6123289045788123,0.03745962549673104,0.8551585481983933,0.506532017040615,0.9504828347057919,0.7767240722458184,0.9087318807249973,0.6663836763969884,0.9320030187671747,0.5347005028987684,0.4832916422304939,0.022570646194759243,0.6552913638103579,0.43502431281122783,0.961049819267641,0.506914482531123,0.6432321479855383,0.34357034605913506,0.6678616278524465,0.48372773257538754,0.7869195206691718,0.43908353564118674,0.41241511839768574,0.0405073558886443,0.490586602987918,0.0201575214343485,0.578412358027832,0.038990644048436815,0.5638625461639888,0.05045868237421085,0.43382061658949916,0.02516152520964104,0.5892835599675991,0.09263035666530285,0.7771354887172678,0.1844681662100598,0.5878127502608781,0.0821329783922443,0.7716377680331498,0.23636732554157136,0.8942444628759254,0.9765984926915883,0.746157384819553,0.3226954474120507,0.47770185514414387,0.05743847085137802,0.8333589382085654,0.5615723727772991,0.8174489039687021,0.35942179968259585,0.6766728467267007,0.2957437076317889,0.6490384615384616,0.3326513638804179,0.11594882913476368,0.8332906777140734,0.4846368725953558,0.821902120731723,0.4094281728080229,0.887946912321373,0.44984615671849604,0.6119723222545359,0.3628572029106767,0.5669041756448833,0.1925649785157636,0.5991117646094224,0.4079507283180677,0.7638595693188243,0.37376425272862573,0.8754026536650164,0.9717128676970546,0.7745620715917746,0.3380658769402857,0.7685443668993021,0.2756571393882615,0.7123770907846679,0.3984030070686704
18,3.314602923496981,0.6546065185863674,0.6663801162327008,0.1799288770322474,0.4678328144061965,0.20788958076343592,0.72163423018273,0.07005506021677455,0.9280933540135199,0.6100310469225116,0.9749972909793472,0.7702644086110516,0.9584655188938458,0.7543032087716226,0.9397003348144264,0.6636071148447898,0.5875283233877323,0.03739220610131133,0.697072067394504,0.5170299853059194,0.9850590392372569,0.7881781925096861,0.7364284217918304,0.49169527694182347,0.7499769746240008,0.597557376893043,0.8128015353440365,0.3350301870966854,0.46689024450514155,0.06179542320225369,0.610380981045209,0.03165655338559745,0.5969197317647457,0.046648617093375755,0.7043256179560763,0.1120195269150579,0.5704970954102181,0.04719559223336388,0.7297482857247763,0.15256647183997613,0.833814146185864,0.20219243857113087,0.5823035502309364,0.06792687891747279,0.8363959744475239,0.3137056530433683,0.8954512743321149,0.9774192730361931,0.8049920842969541,0.3858649729302899,0.5818851319897037,0.0820958560494611,0.8954935519454413,0.6334540604671499,0.902236703161322,0.5150947531185898,0.7495297923814133,0.35750365158571046,0.6808608058608059,0.43438724713223853,0.16937765095257878,0.9096872904592535,0.5513533202390792,0.875244099938895,0.45971007833822486,0.8747265580742717,0.5094672305755223,0.6391341576229289,0.4181540358923518,0.640305768339587,0.27523491064701316,0.670712282792284,0.48624834300892017,0.7981369682730355,0.32446372754062014,0.8741033691583142,0.9713179554536746,0.8228266613643613,0.3780321128834923,0.834918713248011,0.37542995045044975,0.7612893742184711,0.447162665089266
19,3.200162502247253,0.6318601633463095,0.6047240780811798,0.09636849639138449,0.38409287867071296,0.1246980246333744,0.6231208580198769,0.043665950648976395,0.8802258751870397,0.509045181090901,0.9652391134272819,0.6773636343959255,0.9572859027380772,0.7352136409419853,0.9138264573106377,0.47726229390504477,0.5010970292963202,0.023688704044216892,0.6590626622937066,0.39203189226549146,0.9644063072973964,0.5594110873951247,0.6443892992658948,0.3342921119387872,0.586532008340602,0.38551678548911106,0.7471824753849381,0.34079232532396186,0.457147022677926,0.04454531644679681,0.5646705319314307,0.02504976818659372,0.5766173132362921,0.03806923918552977,0.6088155692713398,0.06414816993930578,0.4545903863518222,0.02522043986636051,0.7268875385997606,0.15647844012374018,0.7713981916849235,0.19683639592740942,0.6081635418842075,0.09791568596531733,0.7949570490574507,0.19105552143114715,0.9063435013670015,0.9788203337115228,0.849804856250894,0.4363965228407615,0.518171096866877,0.061121200953294576,0.8400330027268592,0.533265060241658,0.8326957882955555,0.3127115230553302,0.701536308722815,0.29114754616070565,0.6087454212454212,0.3576814754247297,0.11994141281771191,0.8452302646003806,0.49597312782057923,0.8495607269370958,0.4121690700444006,0.853103220877164,0.3827934163315038,0.6130292234342755,0.33260199999033624,0.5616696706765215,0.17908551009866733,0.5114921261348915,0.3169629221540424,0.7063892250211984,0.26835092468368954,0.8797356146600652,0.9716259809583534,0.7666204490271513,0.2999071885614806,0.7644128837975868,0.24958138752329379,0.7008113527810054,0.3662720855440053
20,3.079284924076273,0.6380428974887413,0.5594077885061679,0.10303565038430411,0.4297596898487342,0.19107840506340992,0.7504977217684001,0.06822056948896353,0.838178709921731,0.4651010223387553,0.9543210053603384,0.8145466403676589,0.9184009524584708,0.6610549251938582,0.9121763477971122,0.630397536976471,0.5015458569584665,0.025841603994560612,0.6956737860317177,0.5200818588660178,0.9384155272670125,0.6419140500485089,0.6366955295215727,0.3699179372262093,0.7737540798430506,0.642988621182857,0.8432885802943255,0.3954878194156017,0.4908769369149718,0.06669716934169781,0.5914237095296525,0.029344544942879143,0.5620754335205584,0.04595292690285971,0.6095406571246174,0.0639118082827838,0.5375930961243929,0.03584192330732127,0.6858153700668925,0.18049729071432896,0.8335377091624889,0.2361713961154167,0.6195694564406361,0.11917373501710182,0.8659449948441929,0.27578006802621663,0.8924779078221157,0.9763334938079404,0.8071317283858734,0.41880482494258486,0.5650815772622142,0.0787402440573676,0.9056831438632483,0.6712613146779046,0.8648931399275485,0.4109892436203612,0.7253244606135743,0.3384876527519978,0.6565934065934066,0.3842509897135299,0.14504116828438232,0.7899756902835283,0.41575556481094866,0.8111894984680994,0.34842729148184115,0.8271218802927172,0.48586063467842616,0.6400760070600066,0.4225602668495928,0.5388611741692169,0.16997440245673232,0.6801480756721893,0.5048028684736294,0.8140479260881854,0.333546525229263,0.8716900887573964,0.9702529451620414,0.8196121387286659,0.36570422618563503,0.7982969458970028,0.3008687859983746,0.7250245831936853,0.4057086072373515
21,3.0204530971103583,0.7087245248454317,0.5531121501742183,0.14150644090727105,0.45781382860409736,0.24137735210395297,0.7046390937548938,0.08075230657347132,0.9085531666702827,0.5913954466451259,0.9580511506711997,0.7963194468304559,0.9178439549759164,0.7120539193579812,0.8788118427271447,0.5786044694613831,0.4486219888388372,0.02155500322234863,0.7179675301605879,0.5522734094810793,0.9569367698674628,0.7365894882990824,0.6151853138634156,0.3579027293775452,0.7481279633627606,0.6507659501738817,0.8052194550824375,0.41433439042224984,0.47779050841649895,0.07978458172434369,0.5480051331068857,0.025923065071329108,0.6160422613010074,0.06585210609762021,0.6242169274919604,0.09519130554900226,0.5397436410081395,0.039895918899674934,0.7284251597380049,0.14736694919350402,0.8153099840374991,0.2401928993107687,0.6272877881749205,0.1882464190073746,0.8502139606972937,0.21753942551595312,0.9009144881680131,0.9784977800771314,0.8644685851182333,0.5298997698678702,0.533009735451853,0.07141365970271396,0.8879554127647693,0.687042128769255,0.8497922311666314,0.4446396313620079,0.7234837046442578,0.3587746664075695,0.6991758241758241,0.4163277290183266,0.17478997932998028,0.8858136977957011,0.5466285677135966,0.7909126453382787,0.3685802363538293,0.7715223851979676,0.4205711883651582,0.6513308089027009,0.4476191837226307,0.5124726916284225,0.17523673810009655,0.6543515335042389,0.501677308125085,0.7760166407574901,0.34600775272268947,0.8799401491365777,0.9724358940487869,0.80479053822542,0.38549007333121854,0.7826825645512443,0.3257952743040543,0.7205601258233063,0.42407565419246596
22,2.883966709118692,0.7648271124341653,0.5929522484947931,0.1168830535886561,0.4319639410194347,0.17702103700293037,0.7588514276765991,0.12973265163185566,0.9007307286921544,0.4985200183694227,0.9105147156014762,0.48363513143720654,0.8935814528748344,0.6205187234803253,0.8568673119204532,0.43254242647165553,0.4748143113345835,0.020466404187839665,0.6351027893132551,0.4150050201584813,0.9752263607313113,0.8325110036996235,0.5959073069236428,0.26824670049203114,0.7929673864880269,0.6860804307422177,0.867390937008684,0.4566909367819433,0.49549999835261327,0.07411431819772632,0.49527899692741223,0.017272491154235563,0.5402430955186339,0.045705057307803526,0.5554530932109851,0.07790010825552393,0.4591204677100934,0.03852470029774472,0.7523639426344425,0.21155128747734597,0.8460353405497351,0.2430832027951621,0.6233897426835383,0.15748468709170582,0.8486761115686992,0.2516781063692011,0.9044523904606846,0.9789686330870799,0.8816958440491646,0.48898097779710614,0.529153233705612,0.05493956162917938,0.8668955327082307,0.6120903995826941,0.8525718396862876,0.36075926230531485,0.7162111314016807,0.3241076419034079,0.6618589743589743,0.37697430936458304,0.12996524515647934,0.8632452873513731,0.47238598224442185,0.7801455412502188,0.3009983647335287,0.7734441045485049,0.3567571293297663,0.5800938028960958,0.3398739050934202,0.5054552676594136,0.13865715274034415,0.6774762636173318,0.5029611609264413,0.8326506412521198,0.3604582883611823,0.8821802167612607,0.9727941104819113,0.7802508061457034,0.30944640868375867,0.7749058945612144,0.2613317159897583,0.7115292850370746,0.37687540579463746
23,2.8455701829749986,0.8224563010457216,0.6188823389052684,0.15006884549405833,0.4399017821104003,0.21560050359949062,0.7353866684302627,0.11144171184014355,0.9220904904628228,0.5939627221738066,0.9615669227068602,0.7769065621053861,0.9268669288945635,0.7140011648530831,0.90305373517106,0.5709027780483549,0.5884020412367108,0.03611315595635414,0.6874131540051021,0.46344319302677106,0.9786595421446906,0.885774926586709,0.7281643288209074,0.4084708778427827,0.6994467460776562,0.5747502299414963,0.8276917610505632,0.37872927109304827,0.6105242478855791,0.12607077141899725,0.6837142923291142,0.06452558496815762,0.6116698080492697,0.06213181091928794,0.6463581162109434,0.07743355220778314,0.5610424162169751,0.040483307697293074,0.7843861017632437,0.19041675011263107,0.8631862155042695,0.3312087441824404,0.6711140969143421,0.2563875104973856,0.9081601497407276,0.2778372568907667,0.885038061008202,0.9751878251793508,0.8888049692667355,0.4824780997813052,0.6603951502314981,0.12273207375087515,0.9046356907594162,0.6915146029655648,0.8975662298246645,0.4896130438323043,0.762745258730439,0.3728958102579862,0.7154304029304029,0.39040899061112494,0.14573791216301196,0.8974814049405572,0.5576509520238765,0.8188992107613353,0.37649772261945613,0.816735807891977,0.4397713522229835,0.6206424699290616,0.3585530987199912,0.6197366650792396,0.2016259576198036,0.5890006395294811,0.422501593016408,0.7982280552218768,0.33040175165477803,0.8618652638570221,0.9675138777999923,0.8094069762005786,0.3567066794194737,0.8338555761287566,0.3407694702400669,0.7323873691046373,0.408884578863622
24,2.7056992711770462,0.7802457827646745,0.6153147860023926,0.15128579674401874,0.5089300315886418,0.24961549757255358,0.7520307960355577,0.11750324904418823,0.9029417486401964,0.5547649832431115,0.9265196599415857,0.5890674182294975,0.8960063063770312,0.6759469323124964,0.7853577157193387,0.42279816569794404,0.5295914439904024,0.027526428246264226,0.6311486153122056,0.42202971930451416,0.9751285033265231,0.8125823797691897,0.6305319140042567,0.3885074607607456,0.7457207236961768,0.5942946050975368,0.7905237521489341,0.34193727287373055,0.5567042874887566,0.13396124544101248,0.5681820136199318,0.033401072607920884,0.6056356859328735,0.06038734480198596,0.652254652196481,0.09132041556655451,0.5098759307287651,0.03797990612618759,0.6949429349231078,0.17263956175961875,0.8284970978349778,0.32881490256970014,0.6585232510406922,0.30279006289477306,0.8621667517145439,0.26341424979904604,0.88357910689235,0.9747618632971101,0.8200758706890505,0.4383406506311434,0.6153959375144818,0.11364315138780093,0.8791697848890891,0.6983186945627166,0.8480298683882463,0.4182497931803589,0.7286214507643181,0.3487364008711748,0.7014652014652014,0.44053861939592864,0.1616834449368249,0.8751840769363857,0.5235161896073386,0.7715128427547719,0.3634852185770358,0.6887482823634679,0.2973299613746753,0.5674174048059839,0.32792688916881996,0.5177416323732603,0.175855610592613,0.6448569804369572,0.43696685402147817,0.7459220649024872,0.2591020969369151,0.8618505464315904,0.9687318584824723,0.7678602179744602,0.3430086607313079,0.7701456853928011,0.30863603655656086,0.6956162139789176,0.3787493473623675
25,2.616529667061728,0.8155102663918785,0.5421037922716367,0.08713145854902138,0.47751188141552275,0.15716623562450688,0.6339610823006414,0.06350376871454111,0.8346344141325873,0.47271522774083846,0.9024747113341398,0.49707470265918746,0.9032718364445403,0.6523675658802662,0.8209115327989873,0.469623019522951,0.4878236992344417,0.027715608261589916,0.6237077835169238,0.38820149531579423,0.9614255330294933,0.6001288997326303,0.6522164599782837,0.3900349007710577,0.5286430825039763,0.325851972768343,0.7452263610583109,0.32708785779559957,0.5322625044891289,0.10940520439992776,0.617890795796938,0.04346307271750635,0.5562011998628505,0.08649130469194902,0.5874856063815188,0.0532076188129288,0.4787465581517752,0.026497574672164417,0.7258969269307748,0.21045270014796838,0.8275137210050444,0.32985402233820066,0.6250848943004009,0.26820789276138707,0.841596246318415,0.23313472332783913,0.8937311666103482,0.976600509909347,0.8529890546148288,0.4886836527303702,0.5889922040553236,0.10700946873871817,0.8798247464128708,0.6499507357277744,0.8300929774982218,0.39280861379192894,0.7019341026832565,0.3123840669668273,0.6838369963369964,0.4186438516886055,0.13682427300967798,0.7787305528247986,0.4399050375163903,0.7898700127765218,0.32353478474019387,0.7160757706486782,0.34013793452579666,0.5690479606823429,0.31094742742962156,0.5532083465915522,0.1976594330214561,0.45431299775344774,0.2667372146306321,0.711624792432165,0.29211872163132746,0.8662918125830215,0.968570262768932,0.7482558906778252,0.2984702601684872,0.7483732476041264,0.274558608021452,0.6685850214784623,0.34995126886036065
26,2.5650146169504513,0.841386153728723,0.5522660637122554,0.10446709540834537,0.4466560570869682,0.17294891480403057,0.720538064027658,0.12287288069580883,0.8960595456642988,0.5089702480390488,0.9132390845757923,0.5615879101405408,0.8524002425455532,0.3779316816098301,0.7745135414067086,0.3786390833999808,0.5019967319046861,0.026851855961657487,0.5934993148374268,0.35227021105574874,0.9523725705903925,0.771229360441363,0.6637249347921019,0.3816103271171106,0.6849350458995452,0.5493893982091466,0.8394589361591287,0.44484868799562116,0.5686967688156278,0.15099931921578275,0.6448799574005046,0.040658562944573096,0.5555208199821862,0.08122147980349842,0.5738064483410795,0.07440837593990456,0.4962003669444943,0.028504103187860497,0.6655458592507169,0.12256302225786206,0.8671970946824772,0.347688239454775,0.6341062488699274,0.2224010778232926,0.8543875176536103,0.22617000009700883,0.8787534584626097,0.9734239043604478,0.8921207131697758,0.5591469974769422,0.614524396820114,0.10745318783479038,0.910514945597629,0.685188406385748,0.848471576242786,0.4009026648145024,0.7183846779791132,0.3249758146842674,0.698489010989011,0.3716273413212271,0.12584175870981595,0.8611754931906483,0.4731678975452954,0.7632914286202638,0.20872855410792013,0.675505413641738,0.29430841702976707,0.531264618424844,0.2730767671665949,0.548858227107416,0.17915184311481025,0.5788873280239633,0.41874598497182547,0.8073902981910684,0.35353952050247806,0.8560837685665983,0.9669809226819936,0.8046899364492662,0.35094707947668075,0.7613068956396117,0.27826371573311065,0.6872800681069677,0.3566138600945721
27,2.5413089734289938,0.8181818181818182,0.5741476214134891,0.09623874623757803,0.5445410722561304,0.1997784909450323,0.7386510314756283,0.10098790281815972,0.9151092865937294,0.5456446093909227,0.8863224902055903,0.618961496792812,0.8762505954069502,0.6308586694071374,0.8362073517663675,0.38976182514248014,0.5880985707437436,0.03362553732900862,0.666189355778438,0.36257273179064925,0.9370770600869611,0.557055781131383,0.6618296765766936,0.3576237824506125,0.618571513812502,0.4089964031672869,0.7802303082843658,0.2989008804645242,0.6447123003779105,0.18291676747040136,0.6191939170037473,0.03863770717016597,0.6006035098037813,0.115784943052469,0.5864034747537423,0.06637304428387104,0.5269793940115327,0.03362201810525489,0.803359087738071,0.23608089190770198,0.8535073604111674,0.35648761333784496,0.6457310856182304,0.35607936570721416,0.9170330077517083,0.2712942924831353,0.8605191943394874,0.9698282735321369,0.9414392643985705,0.5635436661478279,0.5814937944196119,0.09921660435503321,0.8708670945197378,0.6378460262044786,0.8805768051471397,0.4511839306291401,0.739097971285001,0.3325889630168245,0.674908424908425,0.4760550348178744,0.1563066768673771,0.8887437800532757,0.5354294051566482,0.7493366036671609,0.3330662738706823,0.7371471400807035,0.3022143325297167,0.6235964853952822,0.30951803212071627,0.5475453964972675,0.1652004470791506,0.533841631729408,0.3164347923252854,0.7534110682235726,0.2908950728250614,0.8428363875135853,0.9637893638723177,0.7299759561754993,0.270019012914436,0.7821220013429101,0.2909476715289134,0.6967828623178671,0.3576200982809368
28,2.4395463709685288,0.8558125333943973,0.5698721636409991,0.12192840386592552,0.5648959722103306,0.32546043535462466,0.7911430990943326,0.14177496011288854,0.8820763532082033,0.4844515264173344,0.9169992555644794,0.6704469243015118,0.9156023591841492,0.7165086940397261,0.8124760809493867,0.500039764203553,0.5581233397313585,0.03208794277575047,0.6715429144636476,0.46835017692518743,0.9534217612237414,0.7096226951407306,0.6755088281462074,0.38037780019753864,0.7227204705579167,0.5889211371888483,0.8354486613493769,0.36633863049351845,0.6636724863349269,0.2600229893252979,0.5980846764191288,0.03152521934979929,0.6155744696355063,0.09225884253282908,0.6291254869965216,0.046929253881486985,0.5221907962583936,0.03717409165088095,0.7741731352409726,0.2289098787627108,0.8748119092662843,0.3809546305261427,0.6643837348843711,0.3549848816532192,0.8949727176290487,0.2803783630227232,0.8758806868798573,0.9729260939545619,0.9122278852653376,0.5421374532338125,0.6363300290267813,0.09166758545535356,0.9080168524817656,0.6533717047420383,0.8727215093277699,0.45539156547978193,0.752296208702622,0.36796080165139916,0.7360347985347986,0.4679203362978924,0.18444177419893265,0.8533739000232015,0.47781006103362805,0.7957593911709532,0.42317314543368956,0.681478285878631,0.3502470476349253,0.604097183580002,0.3802090420301552,0.5407078927867459,0.1625124563129608,0.6108864862501162,0.4378318531016408,0.7909593167043527,0.30456195167812383,0.854622026325323,0.965644656359549,0.8011818933372626,0.33369480629745607,0.7805857936394897,0.3021988002462985,0.7074156823630882,0.39293869039339635
29,2.3808018132736004,0.8658881001450272,0.6485327092417418,0.13007287975285722,0.5576382405131014,0.27765622931542705,0.7828815638839858,0.11544784099577035,0.9301824004854145,0.6032388665396003,0.951343179407283,0.6908538446905073,0.9395390430431665,0.722828524627939,0.9080145201272057,0.647683712459749,0.609557414979442,0.05838661241531219,0.7187500446196142,0.47594321683176777,0.9571751270365131,0.6680504775865476,0.6941128111390433,0.40865040637512645,0.6345352057842499,0.48721201811627046,0.8148997097352887,0.47629392490983136,0.7093091354184857,0.20622032288099007,0.7305411591163912,0.05988203308770111,0.6106301264338725,0.06224048343837399,0.5942368100758313,0.04111269702225797,0.5316453592122503,0.03189022504191425,0.7814963181766751,0.23931491941471433,0.8675525137125306,0.35696360747697436,0.7006456922914437,0.26165048964059257,0.9104566541670991,0.22598494072175895,0.8703475972516613,0.9713659421973303,0.9441954420619236,0.6410337652020056,0.667711747525983,0.1213795076149366,0.9089394668393896,0.6242313776012707,0.8733154946761311,0.49558377659825137,0.7721550180353968,0.3741175052798436,0.7520604395604396,0.46382384054470216,0.17184891288674237,0.8827951150944283,0.5734194555603523,0.8153696431547326,0.4203862132866757,0.7985491963058832,0.48164434914814586,0.6577407512397591,0.38752314451336306,0.5409796417825026,0.19333803609655836,0.5490877139280775,0.37181595963809,0.7774337328646127,0.3852671076006429,0.8517417506943606,0.9657666827309848,0.8009132274174162,0.3211593810093268,0.785487415305105,0.35408773549731964,0.7203565480301436,0.42056881617892744
