epoch,train_loss,train_accuracy,train_1st degree av block_rocauc,train_1st degree av block_prauc,train_abnormal QRS_rocauc,train_abnormal QRS_prauc,train_anterior myocardial infarction_rocauc,train_anterior myocardial infarction_prauc,train_atrial fibrillation_rocauc,train_atrial fibrillation_prauc,train_complete right bundle branch block_rocauc,train_complete right bundle branch block_prauc,train_incomplete right bundle branch block_rocauc,train_incomplete right bundle branch block_prauc,train_left anterior fascicular block_rocauc,train_left anterior fascicular block_prauc,train_left atrial enlargement_rocauc,train_left atrial enlargement_prauc,train_left axis deviation_rocauc,train_left axis deviation_prauc,train_left bundle branch block_rocauc,train_left bundle branch block_prauc,train_left ventricular hypertrophy_rocauc,train_left ventricular hypertrophy_prauc,train_myocardial infarction_rocauc,train_myocardial infarction_prauc,train_myocardial ischemia_rocauc,train_myocardial ischemia_prauc,train_nonspecific intraventricular conduction disorder_rocauc,train_nonspecific intraventricular conduction disorder_prauc,train_nonspecific st t abnormality_rocauc,train_nonspecific st t abnormality_prauc,train_premature atrial contraction_rocauc,train_premature atrial contraction_prauc,train_prolonged pr interval_rocauc,train_prolonged pr interval_prauc,train_qwave abnormal_rocauc,train_qwave abnormal_prauc,train_right axis deviation_rocauc,train_right axis deviation_prauc,train_s t changes_rocauc,train_s t changes_prauc,train_sinus arrhythmia_rocauc,train_sinus arrhythmia_prauc,train_sinus bradycardia_rocauc,train_sinus bradycardia_prauc,train_sinus rhythm_rocauc,train_sinus rhythm_prauc,train_sinus tachycardia_rocauc,train_sinus tachycardia_prauc,train_st depression_rocauc,train_st depression_prauc,train_t wave abnormal_rocauc,train_t wave abnormal_prauc,train_ventricular ectopics_rocauc,train_ventricular ectopics_prauc,train_mean_rocaucs,train_mean_praucs,valid_accuracy,valid_abnormal QRS_rocauc,valid_abnormal QRS_prauc,valid_atrial fibrillation_rocauc,valid_atrial fibrillation_prauc,valid_incomplete right bundle branch block_rocauc,valid_incomplete right bundle branch block_prauc,valid_left anterior fascicular block_rocauc,valid_left anterior fascicular block_prauc,valid_left axis deviation_rocauc,valid_left axis deviation_prauc,valid_left ventricular hypertrophy_rocauc,valid_left ventricular hypertrophy_prauc,valid_myocardial infarction_rocauc,valid_myocardial infarction_prauc,valid_myocardial ischemia_rocauc,valid_myocardial ischemia_prauc,valid_sinus rhythm_rocauc,valid_sinus rhythm_prauc,valid_t wave abnormal_rocauc,valid_t wave abnormal_prauc,valid_ventricular ectopics_rocauc,valid_ventricular ectopics_prauc,valid_mean_rocaucs,valid_mean_praucs
0,4.682307958439119,0.2570032821921991,0.31589184555457245,0.02494773581411467,0.32876919460970055,0.10934048278526755,0.5745382928546647,0.019444307809973936,0.2951575498231838,0.04827626982465874,0.5617391171802574,0.08374317151936797,0.49066912614785163,0.06242847916748906,0.9002357623753001,0.3457566141012062,0.435595747439388,0.018728820075362092,0.3727008084176739,0.20797589167380937,0.9102646950272165,0.21288639361383588,0.47061493516877606,0.18748565422733135,0.5445422596000854,0.2759838091258059,0.6106562462915119,0.1457062077972992,0.37140869881420596,0.02700179957666554,0.3463636712042645,0.012337705047603814,0.4269808695582273,0.01497569106939419,0.37145914401260666,0.01174055436030515,0.4586878889909193,0.023469981417016117,0.3108827467772196,0.010326572177255222,0.584163432645166,0.043889564116259494,0.5679814851237154,0.050551699784630526,0.515101281841727,0.027105102206185783,0.7729190647008766,0.9437793422253902,0.37433809624558756,0.030574311172378753,0.3402221842019351,0.03379127201246154,0.6457634329972005,0.1674832908096118,0.8088342985108853,0.15515212668425385,0.5076474768931377,0.12203269815536792,0.31364468864468864,0.3365630672643941,0.11195091057905551,0.3226822831179845,0.04546572948153619,0.494380860452289,0.05741208236337958,0.896621787553762,0.3300235922663175,0.39181601606423244,0.19988530161586177,0.44511068932939546,0.16625053642475418,0.561403833314788,0.28814566160944927,0.610271764702444,0.14076554460439483,0.7632279474098947,0.9413094047958932,0.6255183465114003,0.16591215846835708,0.7896307047250444,0.15230189897654245,0.5670206636768754,0.23631116556232198
1,4.131035029164763,0.6457522326539958,0.3379925229770986,0.02614564228412636,0.4080756610558832,0.1287219272830267,0.6514409317876731,0.028425534968074272,0.7030258260943696,0.21224472957697196,0.8940883398622915,0.5286729892846965,0.8293899439657092,0.4090773308625766,0.9118104827789536,0.354755645287219,0.6056953259147527,0.030061469562218855,0.6777415167656297,0.5171178457869904,0.8890556109290293,0.1802799134744464,0.8475191746136308,0.534290659761629,0.756072347442419,0.5387112625813746,0.8711970686173749,0.3963848349856488,0.5175577142910717,0.03837381950215017,0.7117324539641761,0.056624620284253,0.524340770791075,0.024093694123594186,0.48718424253051074,0.017472086128699067,0.588166371253052,0.03881930647777519,0.46071498819826906,0.014745314173075404,0.801023648184806,0.133209425216108,0.5624408907447471,0.045664713703214205,0.6350365578497008,0.04318568477528149,0.8116932043217486,0.9534020525321196,0.6325168325301623,0.11210768453818999,0.7019923374806653,0.1265334467807693,0.8013934714904423,0.27161204113170156,0.8792226374289444,0.34156102586102993,0.6851155879208959,0.22601091484914673,0.6968864468864469,0.3967622428819288,0.12519510295902703,0.7197863723793959,0.22993232960821036,0.8219004240209598,0.36136934816671357,0.9114362090479478,0.3187538724139283,0.664899989722082,0.48045813339561905,0.8234556263884041,0.49676730988086404,0.7511605652609324,0.5296102158984197,0.859224481326588,0.3856564501354762,0.8018027437523839,0.9515223078683982,0.7946807605927749,0.28230013272765636,0.8606769379628595,0.3260031042933355,0.7641623957578415,0.40796075521342257
2,3.819888433512181,0.4669872528814594,0.42182845958448584,0.032433079003742996,0.3946665761787784,0.1265202260792006,0.601852793884503,0.02481196927656587,0.7028436065479826,0.18619178133990802,0.9379212616711587,0.7526729627527361,0.8827955939718003,0.45815268128154624,0.8735759101289002,0.4932822340093502,0.4246210863508868,0.016894471384937416,0.6326493388096883,0.45949340836421315,0.8196621751535417,0.09532361406250185,0.5624899754904094,0.25283383534854353,0.6812510945685447,0.49597703595187353,0.7271527438001182,0.1806736509034416,0.3977147163155001,0.03173706062161211,0.5016542921258501,0.02429300620901394,0.5478729960530652,0.02513499626215761,0.4612955207417748,0.01686049694969291,0.5402424527160257,0.03068907394598436,0.7221350541669188,0.03703424750989476,0.7217100312308283,0.09742396838880368,0.5868604727395595,0.05034550193570915,0.755611638354484,0.09814823351673088,0.8636546866693022,0.9677027590016877,0.6449052570420206,0.20271193590684333,0.3868391502225347,0.03947872224496836,0.7664315374913956,0.2925300792348199,0.8914118958679004,0.3653877367103769,0.6463574191806651,0.21684217659988358,0.5368589743589743,0.3924654250784768,0.12467377377194477,0.7309488378653957,0.18147531221996996,0.8802873345284059,0.38691424033585453,0.8741927401369937,0.4698059371370429,0.628023740456493,0.41983928030255485,0.5224745937986739,0.199848045852786,0.6693361244019139,0.4825025470069445,0.7152926460746234,0.17469023092546485,0.8481671825880979,0.9633511313193726,0.7468308188658074,0.2674254826330803,0.8721287716207891,0.33135914758546337,0.7163771104923338,0.36380773900822533
3,3.640152873214752,0.5818639798488665,0.4237692073664884,0.03872443312231974,0.328313682499019,0.10926488407424911,0.6379404992117016,0.027942288969047747,0.7837921528065436,0.31169560114661665,0.8785195446576121,0.5325960415102795,0.8123105668646678,0.41536179155016306,0.9429026743969146,0.5188214274464039,0.5433956924166675,0.027732808768295543,0.5919094469567021,0.3671959387062012,0.9657374973203413,0.7335164455459434,0.7336384799021476,0.3875977582094867,0.7541241320829667,0.49833859751243736,0.8914021057949066,0.47396059960306913,0.4392294783028553,0.03405012462869042,0.5319679249712052,0.021744538855987594,0.6113573851624192,0.03601650021067581,0.45518999587120246,0.015338395297598728,0.5162191565644701,0.029838742767282916,0.522629819040126,0.02700501571442956,0.7086461774821731,0.10837323630311468,0.6001811310985705,0.0608106574774639,0.7160432846962556,0.07370577307309521,0.8585289064212213,0.9669257666975872,0.6848679827885372,0.278973626538352,0.462562249273313,0.04781572510479374,0.7699817624988127,0.3779412142775743,0.8913321633097422,0.49543598651989673,0.6687590036947251,0.25987866369003915,0.6233974358974359,0.32680807533772605,0.10844564184602021,0.8081583216291219,0.3118541670004793,0.8159300882515168,0.353037857659734,0.94415221950831,0.4712463603049465,0.5929812558388545,0.3329705644474908,0.7220973308593851,0.33819385886763353,0.7447037387337264,0.48983678248719054,0.885281335940217,0.47177363134065325,0.8477056038284443,0.9643458876557769,0.7496998096432108,0.3193651672027542,0.8722414498902162,0.46498648425964245,0.7554326572237027,0.42055058209748386
4,3.5299422452126046,0.5200366384245477,0.35705574287969005,0.02733734272620518,0.2892531293579581,0.10207918023169618,0.5045094764147284,0.017650081556423943,0.7407031330972955,0.17841511687225609,0.8939732060664592,0.6930244287242505,0.8107836654635904,0.4838856173376578,0.8833058932031026,0.4851658438550226,0.4412958166921226,0.017847928672342715,0.5335767744053139,0.3124735451824612,0.9237734898327672,0.638401616820747,0.6050846459155392,0.27510443139813456,0.6100605741620543,0.4124546350177055,0.7002905065676798,0.19455162776099855,0.3587454738321031,0.026347451028752338,0.4290442301151315,0.01778722292985503,0.5442372206934065,0.04282469177432939,0.4040863855337726,0.014146236478878504,0.4006601129927416,0.02052845237537163,0.45599883495733223,0.016805383314140585,0.6701173806424479,0.07634511548664406,0.5780419518115631,0.050146461429648986,0.7672091085411742,0.2657507956681308,0.8877128772046865,0.9732127516471647,0.6350704513194516,0.1030553220083065,0.30889553614058757,0.0319313728608097,0.7023552157676455,0.2953720541572512,0.9018464061411072,0.428994253008311,0.6050995273982019,0.22969033186383322,0.5096153846153846,0.30070985147075047,0.1039179277999145,0.7685430847048231,0.1818478575813607,0.8067655905267511,0.4298522927506102,0.887769307863856,0.44235579289404947,0.5331969080341104,0.28370052477530155,0.5740498208373408,0.2232242346193016,0.6038700344942695,0.40152898884205884,0.6959353656505081,0.18926481678077348,0.8711138766167552,0.9691944428335658,0.672113773348659,0.24951150521824944,0.8769274186545594,0.39949648824586853,0.690090457472944,0.352172261121914
5,3.390192700163953,0.6714754598885582,0.6329660086408239,0.08869159474948643,0.40393216632457607,0.1386469239972763,0.641436240058438,0.027071472817555498,0.9076228701846902,0.39210775868217207,0.9569652649601574,0.8144215269787444,0.9315418309949426,0.5775749020774584,0.9574900306363486,0.7067881151864313,0.5808486147871981,0.03262886351024082,0.7273431054462002,0.5027164590603819,0.9307624816843948,0.6762409399681023,0.7556183761469082,0.4213589341495148,0.7690842983422905,0.6335203548404336,0.8649888256274907,0.35706529399405273,0.39480037314307415,0.029623629853560266,0.7393652404634823,0.05070662903134654,0.7143824641413072,0.05456293768295227,0.5865041149349322,0.024879499768175748,0.6105734346044425,0.03833129395937086,0.6993614960963507,0.03221738207782714,0.8132823131320679,0.15374403492998506,0.5902122806044315,0.056615761831836725,0.8651934558163127,0.2326616729820036,0.9013157679693833,0.9760254863581903,0.8626756042778436,0.30117943226404614,0.5504532502063273,0.07241537150724651,0.8447727536939831,0.35693914119364967,0.9200392160106652,0.6160997208441963,0.7464271066270023,0.30980870867763843,0.6842948717948718,0.411061166771971,0.1384064679974762,0.9034025949826158,0.35735438977838674,0.9009982160093766,0.4550508807739709,0.9577063863962194,0.6767661703310299,0.7108609980625358,0.4560721551132927,0.7359281774774239,0.3580679251712824,0.752701958384333,0.6028573973711463,0.8514000309786628,0.3371953263755742,0.8800507263034681,0.9705956507425529,0.8280049656432472,0.3381264003270747,0.8916810357303827,0.5277019088895364,0.8021632960672942,0.47438133389739295
6,3.307038235296758,0.42599801541867033,0.5621183768961586,0.10194061870339734,0.35062669542329006,0.11563114735404073,0.5250191402058506,0.022029839832174273,0.8059134111817449,0.37195757828555653,0.953139902847457,0.7054646689982185,0.8986533031757006,0.5216256462745983,0.9093931293115157,0.4718127238237341,0.5069567375953806,0.024441493996355312,0.5340179066440838,0.34467595704514353,0.9609344439459605,0.8339996883626626,0.6859223806917898,0.3783078371014655,0.630161300908908,0.513483091794912,0.7424873377126905,0.26907796414763774,0.3727809472021301,0.02831827531022879,0.4689243217385175,0.01828501129981627,0.6338581622235739,0.056480780488050504,0.5207878584879011,0.0289728353665692,0.46997612963081603,0.02540152248605612,0.48460819766386254,0.017407040905411328,0.7161008215254616,0.10301659897819838,0.5773369273777763,0.06776660941779412,0.7941278690624037,0.1668368168062815,0.8921877050569507,0.9751750233466842,0.737462147686088,0.3833426539176896,0.3912211099856763,0.04076786771169653,0.7868548433529571,0.434489224956495,0.9133891300396664,0.6191226748049742,0.6601837125027522,0.28295671079688306,0.4965659340659341,0.3638804143976091,0.12020870755360541,0.8275053180512466,0.3541624102186272,0.8556572755791507,0.3943496784131595,0.9084154144321139,0.4255687599142311,0.5401513768575036,0.31591213538411533,0.6626220306236221,0.31394145822454,0.6192697785690442,0.4919703519241977,0.7442465901552147,0.2608692779577595,0.8703991035098566,0.9690472867944709,0.7673603626780885,0.36271430733524884,0.8787437096580782,0.5365158625249138,0.7307501249555934,0.4132054760222609
7,3.1908020120969702,0.5746889550415999,0.4765608185666117,0.06860566839451997,0.36321633498758726,0.11607534817307638,0.5628076888732092,0.025359211028983808,0.8410834196750062,0.3501265019279595,0.9207535239333575,0.514207687400375,0.8449425419792389,0.40816450559668455,0.9306776430545549,0.42217185211319697,0.5573788946757613,0.029062006098203686,0.7067665003682694,0.4066354193248245,0.9604504478621296,0.8215063085439831,0.5656537554361909,0.2623821287725986,0.7151205526299664,0.537772705616916,0.796350111743725,0.285886575151419,0.37383108177338054,0.02808761367775338,0.4980403079936408,0.01935862588941106,0.6972599885852396,0.08281716859088019,0.49549016919077815,0.02133198311007364,0.4503418018569534,0.02326644371992397,0.48882012951643167,0.020853587790220427,0.7167254380918782,0.1026919784846085,0.5917595856594602,0.06514089498884178,0.8140029876500355,0.15856600050374248,0.8835998484652119,0.9731247163485409,0.8322522675361919,0.4957804843061026,0.41819903740534903,0.04143188735427487,0.802970320389096,0.4319503520946413,0.8856068716138078,0.4916358846364141,0.6737282247967801,0.26681457554215443,0.5853937728937729,0.3711434044388282,0.12023913466788233,0.8482185072537086,0.3449029095100445,0.8216052468284611,0.337690920458994,0.9297136343121117,0.37267286988680776,0.6838760943298108,0.35779992848908293,0.5282287579474173,0.19867775425847717,0.6907579003004339,0.48099217063289507,0.7802268456415067,0.2778851230252572,0.8616240067586497,0.9671277498738337,0.7760908877451198,0.3321094384659305,0.849487675685063,0.4412101891226704,0.7400884510219192,0.3846643807628978
8,3.1071207261105527,0.6840699183268453,0.7142997232651261,0.19511199411542965,0.40870297546620415,0.1451989555927044,0.6373944726891587,0.026787541079239835,0.9355139130659329,0.605458502049203,0.952153836905464,0.7935948046284466,0.9113391769862622,0.5511690990843354,0.9629399998018805,0.7137881027019325,0.6329970306704233,0.03334333626145497,0.6660999054712038,0.4932573344463744,0.9804863387132777,0.8370308989604047,0.8002145200333377,0.4751906505315607,0.7423213936318896,0.6439745829868736,0.8134031520162746,0.31788827439043293,0.43040960354552893,0.03287379705098587,0.6891085676899588,0.04230772146103751,0.7280900573685495,0.08485211413756562,0.6532048010946183,0.039231512801635775,0.5861729818741799,0.041180078492144646,0.5695167342492284,0.03600811854782022,0.8121512600952739,0.14201815791639189,0.6180499871401123,0.07779974495297734,0.8607968667588969,0.16082897803174692,0.8766707927972599,0.9721150769717585,0.8977773003366178,0.6626440575293376,0.52158893822651,0.06539239007234252,0.8592505657121532,0.4048200630261493,0.943913372758441,0.692429928546419,0.748317343272732,0.3439368820876557,0.7385531135531136,0.4165634684237446,0.14648199423360117,0.9296963638722554,0.5362089980761875,0.8860734538747931,0.42036700476773947,0.9572434357245261,0.6355862419408491,0.6382197418861973,0.4315893289021977,0.7532193955281682,0.3960173617129216,0.7071280738844999,0.5902320375122518,0.7898875123841588,0.27283338029894694,0.8574344600056759,0.9670532330783255,0.8358855976556001,0.3501925633115291,0.8995519746608283,0.5543432550642277,0.7882639525364042,0.48190049080897973
9,3.0218582832306433,0.6095717884130982,0.7152785250815059,0.17503416923909693,0.4080554883130796,0.1418806429817081,0.674627845595996,0.0398946343373935,0.9290908177620592,0.48834308767170853,0.9539328659931674,0.6988220726359253,0.9492819459794798,0.6413168558330526,0.9337392631326041,0.5985566489882854,0.5192342355162174,0.024693004021982646,0.6045038061361594,0.36073758003200884,0.9795685141762233,0.8656037696150317,0.619412673746738,0.2997409807072044,0.7520255156176072,0.5668696465078781,0.8458646492750119,0.3738567540409915,0.4393093370817292,0.03366179582294685,0.6255001885437917,0.0376510197533615,0.7392532777243362,0.08058537279587437,0.6028877978672625,0.037507863245464006,0.5640659590976715,0.03343305390394919,0.6043481056708829,0.03039172723307837,0.7533666554859026,0.13179288724252483,0.6010544267431872,0.1031486079948076,0.8766699160660754,0.22393073828959992,0.8821717736385364,0.9735071177040172,0.8809401849924376,0.5906786602169631,0.49496285592592987,0.05160857603189088,0.8672333689917495,0.4859164892460482,0.952001057432947,0.6689024907892542,0.7321622611699367,0.32437282395859435,0.6183608058608059,0.4162782441255228,0.13964169216902717,0.9105740186530157,0.4100936824901567,0.8963378636927745,0.5124698044947525,0.926913529442999,0.49369758947339853,0.5800767929214292,0.29920160337079443,0.5648597552152931,0.22981990511454403,0.7178720652052966,0.4881566534521822,0.8240891250281293,0.33596457236139377,0.8554223846390087,0.9657267971004536,0.8285553369165409,0.3712745359793352,0.9136088472082667,0.5467931326648228,0.7667807239134796,0.4357127244246236
10,2.939599843009193,0.5585833142508205,0.6268976532670125,0.17820820482022068,0.41322750347300713,0.13510963120116676,0.6280624329360857,0.032652690492121696,0.8690822643650552,0.4401618844102579,0.9518592588038175,0.7719357811649488,0.9179993952817297,0.45536599792461324,0.903032565328693,0.46165692228011324,0.5151557554081959,0.028771963811758207,0.4991786850201344,0.2578016866149559,0.9614228600853514,0.8219723561298801,0.6581318165919899,0.3054220670306271,0.6986574329408595,0.5018218562146574,0.7303018675348419,0.23679391313938572,0.40613136283610163,0.03149813272948865,0.5412975919091102,0.022693836283684987,0.7063934716144918,0.10381727107322276,0.6000240534300866,0.06055326445305365,0.5168333558749344,0.03215524853554001,0.5761570991950614,0.0695881294264295,0.687497588604658,0.1053097268359781,0.582059363931461,0.10865092717738375,0.87729518673234,0.271999629767654,0.8860621661989494,0.973954569453833,0.776105405470908,0.43601220341841734,0.44828958953292336,0.04340115470506251,0.8411203637182889,0.5144998526741931,0.9198151836066184,0.5880621512528221,0.6940033805071374,0.29592115011190634,0.6089743589743589,0.41942333343362315,0.1408148408754074,0.8577374489201505,0.39887012917760684,0.874690818050193,0.35437820238312945,0.8933213972813677,0.37855100919684076,0.49480566297939965,0.2283057030950931,0.6105605961307674,0.21087146633250345,0.6677075219761879,0.44019641070756893,0.711522601272463,0.2200343847298604,0.8564566562243732,0.9660529673991002,0.8042186573187347,0.3711099767884403,0.8726363407060069,0.5544604327438429,0.7330073667539334,0.38760413849358133
11,2.891351391146105,0.6988016181970842,0.8109373048706932,0.3050226736322577,0.4459824936217617,0.18253923625012208,0.6704978795726061,0.04770284251974513,0.9419430219243586,0.6317325100451894,0.9636014502148452,0.7222278596681284,0.9596600685836626,0.6371263029897981,0.9460564704784103,0.5524384700621326,0.5897676713056512,0.04099645104620286,0.519331360698259,0.28824534412746616,0.9874863807038055,0.8891582556988424,0.7833094255611668,0.42099885829844025,0.7634579282846466,0.6684530608368384,0.8515807407975584,0.35650572303738837,0.46788613979739646,0.039281841591925326,0.5844724093022238,0.031110448096370535,0.7657887438672459,0.09987475481170456,0.6919887091250922,0.08670345782386954,0.537510647940528,0.042507621398390164,0.6289397733462447,0.04913350817209455,0.7813117295483261,0.14736167929432784,0.6566748700983234,0.19166236961662167,0.9138910560913178,0.27251407482391427,0.8975786548411132,0.9753648398033931,0.8673993241441922,0.5429405972195628,0.4994439533013533,0.062444595833847774,0.8720816666966162,0.47077719538417895,0.9518911092223455,0.697648116093369,0.7537211475533239,0.35009158104356003,0.6964285714285714,0.45036114370530833,0.1633712265440234,0.9269840053567993,0.5208241769377523,0.9111915247517925,0.47934269936404345,0.928871528699623,0.4429294700830764,0.5161924762572425,0.2509517116239905,0.7288696581014715,0.3229726885726654,0.7206124123734283,0.5844209851792003,0.8330191629331531,0.32309732360920873,0.8697222184779413,0.9687961070081459,0.8320233712567132,0.3733328146880935,0.902387538817147,0.5657147743988614,0.783657730975511,0.45415945254627826
12,2.8032089996297853,0.6340737348294023,0.6926673561789065,0.2294522816965779,0.3808845404827315,0.13798641078997317,0.6904816451647376,0.05209897635488887,0.9578717340650533,0.6757545472523405,0.9595389270403687,0.7790388304019102,0.9075818265525138,0.5383531584147786,0.9335544913807042,0.5605811054141703,0.5159638620890292,0.022766263333087768,0.5306596070074141,0.31013558566857613,0.9738140438425312,0.8367442464942806,0.6442592070760487,0.3396356551402227,0.7752700609723284,0.6057609833537942,0.816633757568221,0.31991237823596563,0.3947193424324348,0.030886508750479887,0.5266946870344149,0.030630829497213432,0.8294900067255983,0.1395029771084116,0.6740456745413551,0.07202349545092368,0.4828852300311074,0.027591930719850485,0.6433993524178417,0.05660767859524339,0.756443682839381,0.12684201540013124,0.6501140579585895,0.19235851068762008,0.9111085647652766,0.2637300225637287,0.8659648894287979,0.969528563572803,0.8840122568461678,0.5835530962730561,0.47608355026798715,0.06349940012157079,0.8857365663304604,0.5691062130340304,0.9641268400240897,0.7374293028821178,0.7305187318912627,0.34338929508176846,0.6291208791208791,0.3868299385223295,0.13669338045775498,0.9448794763711342,0.6024064152225722,0.8632801727109765,0.399658576692072,0.9170596492858281,0.4619163379166042,0.5141944183235335,0.26308209348052086,0.586838034402635,0.2450716225865523,0.7412098030488484,0.5324454609411644,0.8021720134085005,0.3037353707128862,0.8403389234030633,0.9623489864884028,0.8288564632788971,0.3909537468411815,0.9068388473323162,0.5895790461320111,0.7574997945534602,0.4443537306792475
13,2.7276124516913622,0.7256697961987635,0.659052804149296,0.22674303340774227,0.3917590961257468,0.13852628164655262,0.7016510348886063,0.04642684685424254,0.9392860920279014,0.586855703234421,0.9691743712256111,0.8555717281989265,0.8805786605881717,0.5174470417380165,0.8602558480133553,0.4944889933658446,0.5119709201759463,0.027712852931279286,0.5582166418141915,0.31733383411835914,0.9548776418119576,0.8221769154659697,0.656931439330565,0.3533086046920136,0.7594251567079983,0.5669970317260663,0.8436793288894106,0.3616654988936843,0.44303356881348943,0.03553688096020059,0.5777116943003657,0.03021690815716782,0.8121808020342924,0.10888113592050275,0.6623044534813406,0.06563427460066115,0.52824213476081,0.029978456584342485,0.6741530745022091,0.14718220809979934,0.7076026298547253,0.09588915125066852,0.664385507494877,0.20254265272965544,0.8973677758436783,0.20673190024293145,0.8614773342559654,0.9690958001098475,0.919383659852868,0.6340898681842865,0.4840854178428119,0.055989622588749816,0.8477221521156004,0.5074517153902902,0.9443830940322594,0.5982775759745245,0.7300330494420019,0.33343527840987947,0.6929945054945055,0.39394289496645307,0.13220823888558028,0.9206807105595645,0.5074969888517294,0.8077653147407611,0.34196953181596773,0.8355678861572771,0.4106467044459085,0.5363953347456522,0.2742166664580194,0.5847184571584206,0.22919063585140753,0.7212863024368532,0.47312703252502725,0.8140029400504425,0.3250325056092595,0.8383661933450325,0.9628642516807022,0.7957432606262038,0.3433591251099398,0.8864347768556767,0.46937926432877497,0.739536733785667,0.40631735868748337
14,2.647548294414974,0.6359819861079307,0.7604140095867443,0.30758593153836605,0.3988376136063859,0.16283300266643097,0.6668670959733106,0.04489439682907852,0.9324597790478564,0.5770102484234205,0.9541520012728514,0.7449785129086466,0.9224431082910496,0.6122488442657452,0.9339890114115235,0.6087754182341667,0.5767658656749928,0.028642686533548616,0.5318048819920617,0.295493614818238,0.9910219831463283,0.9097097039123416,0.7963236389294772,0.520013825315176,0.7278325412001043,0.638357931400631,0.7312648638136668,0.26623421859715246,0.4463842054403082,0.03987304021384829,0.6305833428574753,0.03381682472767447,0.7983199736871016,0.13093691306731972,0.6633038697547974,0.06982582407879835,0.47747595760280753,0.03277261229280308,0.7346445106820796,0.09329331201019213,0.6979527036303884,0.12435093871395661,0.6626456403299528,0.2931093456661954,0.8875742910439587,0.23295004147168266,0.887736288937225,0.975139861786471,0.8720907839809466,0.6182340863351424,0.44118511382080094,0.05091633445771646,0.8590982809269525,0.5441482208163374,0.962553960215062,0.7479035533043935,0.7387305672909706,0.359409231273536,0.6730769230769231,0.39997633159831913,0.14368801647770124,0.9141788867923378,0.48647002112211823,0.8488972869553226,0.38884819236085527,0.9104754619550788,0.4818732265459327,0.49350665686940753,0.23892630231890205,0.72925479398422,0.3622552193843523,0.6718738177367308,0.5070988069801693,0.6924213331930527,0.21377558072084257,0.8604166886769666,0.9671804458248412,0.8042199944695443,0.3601200002755585,0.90290958034064,0.5771844371534596,0.7480118938701473,0.429765477196794
15,2.5815840886390973,0.6133882909701549,0.7414694449094333,0.23331489064641509,0.3661729109543961,0.1284286192601844,0.6878720995085762,0.059001405855918294,0.8310828784550967,0.43736493954316347,0.940646794176739,0.7523543875646688,0.9197180231975016,0.651875508906617,0.9604497366267982,0.7122201756455959,0.5327505352066355,0.02429951568680339,0.5598252197992264,0.30260107381958046,0.9827071956294491,0.7906699460641152,0.7082343900572605,0.3628462298281091,0.7253500364104435,0.6053836042503696,0.7548984647456843,0.30262818596277463,0.42741925222717264,0.03977669325802799,0.5818215041209308,0.025136482793479686,0.6308458779585263,0.07774144129327933,0.6357194186113602,0.05999712613149964,0.47894531407568763,0.029451598143980785,0.6408290715971676,0.103065890409482,0.6593180660870048,0.09212988225269858,0.6411882872478663,0.27271849291226874,0.9048179437620798,0.26315466120170106,0.914465133025219,0.9804497457859696,0.8852664678444471,0.613590006696917,0.35416683307699703,0.03408509524406947,0.8695292233372048,0.5529003478537834,0.9093711375951881,0.6028430305660636,0.7127733800090406,0.33740848065101986,0.6559065934065934,0.3737846376026717,0.12414580626495911,0.818022947510856,0.40495601731910724,0.8385369984142306,0.45370212430045875,0.9368130409387776,0.575633272622051,0.5327684569163486,0.25489007706556577,0.656861483007209,0.24879030040991024,0.6633369033047736,0.4893521187628624,0.717939275976047,0.23911268158244253,0.8831484407417756,0.9712244234987744,0.8017176504441748,0.35211663700398566,0.8361823361823362,0.5232475482295541,0.7326465610035637,0.42156100064178825
16,2.465832188733433,0.728265017937562,0.7054940773688533,0.2749694921823858,0.35269086131110183,0.11795971972999118,0.6347843780787186,0.06380073076601973,0.9086798408318232,0.5410887372276433,0.9732734597632859,0.790563348057074,0.9152636689079403,0.5908753213883814,0.8672366272179116,0.411584405546002,0.5667020835902641,0.033512026049957094,0.5115652274739435,0.26945051463762876,0.9881633122128345,0.8932355251153156,0.672321483831338,0.42342216403492944,0.641946324069434,0.444112762138526,0.6727675370241886,0.2423252963798669,0.4554172043601219,0.04502301797536826,0.6619741732645588,0.05839417026336397,0.7581450746380637,0.15401021115362099,0.6431040464463493,0.06388365160345943,0.46521522483467515,0.023871692228490022,0.6809689523694245,0.14585878450475726,0.7080555376933678,0.13942749697863333,0.6457615322934476,0.29286503339907727,0.8226301852073409,0.17117683982153645,0.8808091127451838,0.9731584925529804,0.8944085017132205,0.6248232786288016,0.42426929975477773,0.05237249999570404,0.8566074177084559,0.5618886031863193,0.9353194897392009,0.5895489538917894,0.7127249864611046,0.3330815840532453,0.6565934065934066,0.3636784306646207,0.12024024358990722,0.9021731085544218,0.4804655471730376,0.8501243191533373,0.36386556543840604,0.8419637405086816,0.33257290335715906,0.493959498867128,0.23163723836349867,0.5860651028589423,0.2647960735484488,0.5886160565260932,0.34723923458069345,0.63528469683287,0.18981347997727432,0.8463682276432123,0.9626047836721991,0.7772007229172138,0.33694545750957516,0.8665599841216678,0.5016806321393724,0.7047267171498354,0.37562374175905194
17,2.4150505197948102,0.6985726280436608,0.7013784266366947,0.2794459654904944,0.4672535153564893,0.19331334198334124,0.7058102784735265,0.08083885543608947,0.9306225054802937,0.5625944142026346,0.9574897253042075,0.711193980029111,0.8976546129093651,0.5537750529030669,0.9420880752626303,0.6542374032784317,0.6043773104008754,0.041814096734265165,0.7423002182863412,0.5045252111339036,0.9832926319883841,0.8755971473646641,0.7010744604771673,0.42904506324365604,0.7232025668040651,0.6158133481921136,0.8087937475682972,0.3749126059114811,0.5319571561836812,0.0657342192878102,0.7097067203029841,0.04684718693113953,0.810658666509468,0.17643783103896749,0.6504972915537992,0.07354470069231768,0.5651464136312622,0.0367615481143896,0.7565877867215396,0.15123913129026262,0.7344687891580189,0.12920519717924078,0.6388425764827115,0.24092372371904205,0.9129512017160873,0.26085384085136537,0.8975369182184465,0.9773294828071643,0.8927599650740147,0.6423091734182991,0.44737873453768895,0.060649743978544335,0.8889041998817416,0.6201500062710156,0.9610413968225082,0.720771532024602,0.7616213293237886,0.37332828901879306,0.6948260073260073,0.4552695289386326,0.16501520909440826,0.9226938639745674,0.49729224352821805,0.8260081270683949,0.319829941896867,0.9251795385759041,0.502470327552067,0.6894477996818448,0.40360066163177766,0.6187484573286464,0.25358303068410887,0.6633218816067654,0.48861261075525764,0.7722922164648669,0.28871546413764365,0.8634043819744569,0.9672233261940035,0.8035704066061669,0.3888350345752551,0.8984572380798795,0.5758663923163767,0.7671266763909205,0.4410040220332712
18,2.3510595632503892,0.6332341042668499,0.7238374777137422,0.2596460373914673,0.33880007983596755,0.10964030955864247,0.5987129583951212,0.045903182182645844,0.9172085645751406,0.5947804535860659,0.9521762727957638,0.7259074282075727,0.8881758007991479,0.49305273990912296,0.8852556927077029,0.5076329001432422,0.5804245603716247,0.037954866937770025,0.5188256615424073,0.240862566945186,0.9798248773987088,0.8782464831062359,0.7345084433649343,0.4711242239143876,0.5562396239567964,0.3345779882126657,0.7257321709454951,0.2985362719068202,0.4895582553887097,0.04972472024162561,0.6592269430789373,0.049483389554183965,0.777844244790341,0.12474932719872617,0.6084290787236546,0.0560654690660146,0.45247210180261627,0.026150295490458393,0.6015743206439509,0.0786173027815278,0.656326197920378,0.10348001912077476,0.6293770266930925,0.2228978180309138,0.8647938807939433,0.17919767087164773,0.8650957135364922,0.9703776917199094,0.8746535731339784,0.6122596929917916,0.43880883872043297,0.053011299630067156,0.8396735207349961,0.5646836299928977,0.9305826404987626,0.5598074477115174,0.7069680933652904,0.32031004542236596,0.5139652014652014,0.3512968478904033,0.11246877052679533,0.9095604760167427,0.5220414224949909,0.8180943619001655,0.322659290646384,0.8585304054054054,0.4000574544098345,0.5043420368378988,0.22078800782689606,0.6245228357916777,0.2807170397973848,0.5229459218871704,0.30139718286391304,0.6711685093125951,0.22665188469082892,0.8360870799114146,0.9609725774784212,0.7500234001391707,0.324102018622185,0.8753054718221627,0.48642883435375806,0.7019888497195278,0.3780258621555811
19,2.2507174652629693,0.7786428516907107,0.6750308221270988,0.21233004312335807,0.3631802199888814,0.12325528962249863,0.7044389906853439,0.08248332905709052,0.8607200630220517,0.5187901383601656,0.962088483383483,0.8352665897716681,0.915892177166797,0.5918015699512044,0.875701792663764,0.5892276406585162,0.5615546132124098,0.027424716206939724,0.6103512279515071,0.36661175247581185,0.9561340426049155,0.6001774426441592,0.6937649905547505,0.40175469465692326,0.7133782172538532,0.5729268559475733,0.7615745825283614,0.2794154679272728,0.4905728134599377,0.07406550190608323,0.5997360729099869,0.03648313683712921,0.7351785632943106,0.08029715312843155,0.5075577226122474,0.030476306465799952,0.4834494818990943,0.02790556063230742,0.7678342310718393,0.225789914315254,0.7324308776783868,0.1352101299143142,0.660555782494751,0.3754165790741293,0.8985184760794214,0.23670761740235058,0.8901172171923997,0.9754802833189726,0.869509326587439,0.6015816223931967,0.41003934842045886,0.04148803241551819,0.87298654331813,0.606839829141983,0.9333241077938231,0.4884990431439897,0.7224303995539053,0.3384335644626904,0.6865842490842491,0.36527484430002705,0.12105481053062059,0.8494732451736998,0.49448145105616426,0.8212238865140651,0.3547405981459496,0.8376171480911166,0.42468694842460697,0.5783832374827999,0.30376596757338326,0.6018631214305776,0.22663172552293176,0.65298083342606,0.439148387306396,0.7266916249477601,0.22940945840062857,0.8571368200320081,0.9660544287208519,0.7875240620288215,0.34890968059741817,0.8630462828576037,0.42089809868477385,0.7219286460258671,0.3936165049967023
20,2.208780751720784,0.7306312495229372,0.727425615047575,0.26428008805366027,0.3395643952247333,0.11510433164592976,0.6430366247655965,0.09741438394743995,0.8975239012263053,0.5263995203037343,0.963306658030276,0.7903084201776063,0.8935359482016725,0.5163974167180345,0.9256282785233103,0.6092117350649974,0.5980036871547246,0.046679800576215805,0.4860053779611632,0.2438479810020877,0.9813460395197167,0.8620913590260317,0.690553659403625,0.43064685420236,0.6030050047639978,0.446592398077336,0.7034553843146082,0.30032633699226374,0.544204931354934,0.09832265726905133,0.6228304632017951,0.036172328710533004,0.7245907701211948,0.12722130986651567,0.48379615579728874,0.02538815841116703,0.4235384144475054,0.023988592171681394,0.6482261468861588,0.15631904043672679,0.6704096156887552,0.1231793807298135,0.6465368238262621,0.35296434681430944,0.905114834112122,0.2695523400073251,0.8882888548549396,0.9752584241272506,0.8956180071882552,0.5855231561526191,0.4132978129946413,0.04165823785696216,0.8506179467818005,0.565627854233731,0.9176082920941377,0.5472841552215788,0.7069285053143368,0.33991705954803564,0.6403388278388278,0.3412600415199928,0.1146233180914672,0.8828696491871195,0.46819240881213864,0.8244320532266961,0.31171606261488954,0.8948272314554241,0.4567931275583305,0.46790911866086404,0.21456271225365237,0.5979708020188781,0.23722882648687735,0.5446882997663292,0.3546675058339861,0.6648552916524194,0.2205451797328697,0.8559870626796268,0.9659136670154673,0.7577638987466617,0.327635969404516,0.8466014579947817,0.49717718186451865,0.6981059006280721,0.37900508724261034
21,2.1230930621892785,0.8155102663918785,0.722797978227887,0.277151072071322,0.4185409504897657,0.1578509713084304,0.692534551182301,0.10946519470644897,0.9093771478559732,0.5391219074679318,0.9604331942251045,0.6797326202922189,0.9310657865960966,0.6165082882121532,0.9092957484699874,0.5703100573901508,0.5738079201095395,0.045307203951418476,0.6595964606268173,0.4013583030665496,0.9825405595348332,0.8803331051784891,0.6735061796294333,0.42498414779892774,0.6068212422975814,0.4477587784004892,0.7603904489880565,0.31970834689020217,0.6054999762265271,0.15160095815835695,0.7204441352615216,0.07210125954102121,0.7487814877237735,0.19966494458153328,0.6095824819093478,0.09098919712467111,0.5454009201718856,0.03469395964921594,0.760129819040126,0.22083168860823812,0.7268950091502677,0.14877814898251168,0.6467405647928214,0.37974843561219035,0.9181471514534675,0.313669774258653,0.8924173279834187,0.9761081591300554,0.875473829419444,0.5892563863502848,0.4493095023433581,0.05845814100076405,0.9031400921006646,0.6283190698616693,0.9174507800808309,0.5839105535118493,0.7451896757737344,0.3673229878928055,0.67742673992674,0.4134364312864177,0.14268897015229107,0.8889543879691445,0.47971632706817496,0.8412937810259238,0.3639617040063838,0.8738633648383157,0.4253872184566492,0.6102141028374723,0.31920761475258524,0.5901037100714097,0.25102934195679716,0.553952375653722,0.34724315517791005,0.7180368879887541,0.23877240932124894,0.8619252898164504,0.9670399679987983,0.799087742231555,0.3632340948014133,0.8421191371118802,0.5208833754900298,0.7266352009846405,0.4017421981074802
22,2.0697229448306396,0.8170368674147012,0.734771444627783,0.29286515382902356,0.4019375585477122,0.1463298492611112,0.7659048523166602,0.09572652847845654,0.9281287374683714,0.5589843112145547,0.9678736890204062,0.7775516032238651,0.9376235672800447,0.5858084194528405,0.9560064838850656,0.7307351256443458,0.6128737355051497,0.05103580370770678,0.7157799680368037,0.4619987492589416,0.9775797101769569,0.8575705451789344,0.719152951746289,0.4298642193659821,0.7712700759035654,0.6536930725800895,0.8180880982440861,0.3263211267319172,0.6523272723254676,0.18678756940355715,0.74157541169957,0.06743469772395017,0.8283987717074712,0.23447342903042756,0.6030086270137254,0.048163834508867756,0.5513704107079723,0.036588677233508574,0.7629732040186407,0.17859185088288382,0.7255890321919105,0.14448034902703616,0.6912129143531477,0.40691980181219606,0.9218256850278796,0.24411691656150403,0.8940148825074234,0.9763934959223378,0.937012537852314,0.694750446059616,0.42284182120496194,0.058171901205344254,0.9151457135882282,0.6882900981999616,0.9391229280736498,0.6183259617621353,0.773830003149306,0.39081383471337394,0.6994047619047619,0.3880580878739557,0.12637529012233095,0.9038127140390457,0.47631803228051683,0.8251732280750139,0.3298821526003453,0.9319620148144214,0.5470839136964853,0.669016065766403,0.36865274994958597,0.6108749819135082,0.22994259390038657,0.6967099699566041,0.4899218394620633,0.7718135084504532,0.25011987602553853,0.8602910022743774,0.9656012386852173,0.7980490434825397,0.36806064574542313,0.8749136822431451,0.4899522945827775,0.7573340271717698,0.42199187518642456
23,2.0395215215614555,0.8300893061598351,0.7278655278422119,0.29449400936834136,0.41112633195766807,0.1828465263172842,0.735217393213754,0.10517857525128366,0.914410404581338,0.6012664703118739,0.9085739611112377,0.5753766736527046,0.9012294715026514,0.4884009842089917,0.8945777256100027,0.5841235401236018,0.5720971562107686,0.04396627864930923,0.5708393937166486,0.36597659970956065,0.9819029665202892,0.885893415692755,0.7699999773423724,0.5062598933650555,0.7522015953404587,0.671097735560994,0.8369345132830212,0.3565235196515101,0.6467729017231415,0.20279084884757126,0.7545332634363972,0.07142187123881549,0.8166597892288605,0.12544237229165886,0.620732108481719,0.05012418067775877,0.5877829267540332,0.04316747440266723,0.6659796193185257,0.10826039625844325,0.7997003786976901,0.19014488446784336,0.7250137424290563,0.4489689145166565,0.9254871571490437,0.24919288165464462,0.8610123069716953,0.9691724726334281,0.9170532411668108,0.5938529742700918,0.4493723088228739,0.06077744801737587,0.9315086725008579,0.6364782553320398,0.9617469265626376,0.6941345911750797,0.7644567319065098,0.37427162176471634,0.739010989010989,0.3917477510003911,0.13628021519282732,0.8976861796843912,0.5516193026328045,0.7949563482487589,0.2959817337817774,0.8413987415706471,0.4563281894900175,0.5399027126033353,0.2960476418388183,0.6629130103582402,0.2670288232487949,0.6677645487927005,0.49963310215014356,0.7829810241078291,0.26960389947779867,0.8385261247384721,0.9623173124998874,0.8098159706083555,0.35744274756782707,0.8914019244207922,0.4959280877787481,0.7380994851030831,0.4171100959690404
24,1.9514992272578144,0.8417678039844286,0.7486580916054874,0.2682870221104555,0.43182341021419446,0.1715328568221071,0.7522349758533311,0.11889802366723863,0.9186223689372315,0.5870567531197677,0.9564574174509095,0.6899569989843554,0.9321252667047307,0.5784751936443131,0.8731965865664473,0.6549033260590669,0.5943861013872682,0.05045433292814759,0.57432456027132,0.31735935854743325,0.9837503287416324,0.8906678210664469,0.7366990483915647,0.4747248067881551,0.6631913590443013,0.5101078146498581,0.8481712884677145,0.41905901353778785,0.7179980592809964,0.22078936088391546,0.8168054111726054,0.10615545476015868,0.7875747586421258,0.16831251545849432,0.6073112686198652,0.06862385588259808,0.590185624153207,0.03478921858226934,0.5975534103976275,0.2053856166992827,0.781606223919999,0.18502519859268673,0.6795420198933217,0.41472019119452047,0.9418949039756135,0.3062739362463913,0.8751105009260913,0.9722680762477057,0.8895924231834655,0.6197106823072681,0.47323709619942855,0.0703337534778467,0.9265994364332195,0.626779443231325,0.940994402866328,0.5812885677976724,0.7644313460481491,0.38192367382545434,0.6863553113553114,0.4019929596533983,0.13447222877998521,0.9005535301150163,0.5300230775352397,0.8352695808052952,0.3099555322484589,0.8296963773695111,0.45453984215514504,0.5504684122764361,0.28014129529963017,0.621000225549191,0.2395432560312298,0.6010556915544676,0.38681749272596555,0.802472447986533,0.3113511744003422,0.8425440822287806,0.9617617573477962,0.8037105400110288,0.35191652237296583,0.8732545205694697,0.4951856742761694,0.7329107607381024,0.405064350288448
25,1.8922611507566165,0.7941378520723609,0.7213518624801714,0.2630107010751853,0.4343661109677198,0.17720495662914215,0.7207711124155891,0.10832659853080873,0.9270034068555228,0.6168804268076217,0.9753365340728386,0.8028243807863232,0.9532992127409637,0.6481326410242743,0.9167203660445093,0.6487589266575562,0.6336365907416366,0.048677618841597395,0.6547343595485949,0.43113610136922903,0.9670080422910916,0.7254472202732143,0.8091033458518714,0.5154101227914313,0.6540044022263718,0.5447985934710278,0.7627355370097257,0.28655840911899766,0.6771404161764085,0.22365639915030067,0.756729405098142,0.06973556624244823,0.7478054721182418,0.1350705757399067,0.5606367489953384,0.041285233238600935,0.5261759004183246,0.031199462337173973,0.7496886915209102,0.20558567464973732,0.744928596628739,0.1352002340180017,0.6745617972239453,0.40903378263288476,0.9208734031743571,0.2566549367415893,0.8666827266521288,0.970498945003728,0.9195495451827096,0.6253348344090324,0.41689639881174007,0.03942127206271813,0.9042983182845528,0.5839201055969069,0.912355249217093,0.5504451853818725,0.7595701315833052,0.37385958905856703,0.679945054945055,0.39900873524485764,0.13613205979552245,0.9030029248193431,0.545536657352928,0.8356089268477661,0.32397328834702965,0.860537354643445,0.4580051355069001,0.593364146633675,0.3348025851838249,0.6994886842396439,0.28412902757100833,0.5850948592411261,0.4059302778844474,0.6990569042963899,0.1983422203575261,0.8360411770513387,0.9614074093692752,0.7795091800751692,0.3145939158012119,0.8340021667307588,0.4632233785172056,0.7295195508930465,0.40237054142608
26,1.8675784873158028,0.8488664987405542,0.7996214657515683,0.2983207744041122,0.4290536659083853,0.16591396041797185,0.7702977674395455,0.13612538451427802,0.9393712545725122,0.6454078571571512,0.9630537404653888,0.7419928664312939,0.9379467808781821,0.6004703512296038,0.8917355482213977,0.5806625720587045,0.639609401928325,0.04230492195015162,0.5111709287584457,0.2528880071806804,0.9804664484632571,0.7628332719973805,0.7351062469822127,0.40673055991238727,0.6994153487517019,0.5640394572377444,0.7449046423845684,0.23818589558850295,0.6958771775329297,0.24350785125540986,0.7693070895887556,0.08135792360291721,0.8091316743524267,0.17692427411358624,0.6576432584080225,0.08644487252609143,0.5600515372185563,0.03267005273532779,0.6774254070084125,0.15140479936867524,0.7602070237211784,0.1867468156286309,0.662212942930676,0.3889852389774533,0.8966632010150933,0.27560077229028396,0.8669031564899039,0.9704189312826139,0.858117442228346,0.5816418832312585,0.4775186300122469,0.06853498090000984,0.9033192093244375,0.6231558573607239,0.9444544971805235,0.6038321304316003,0.762243906945074,0.3669297134735017,0.6838369963369964,0.3970595019606663,0.13347033513458662,0.9222053782194564,0.5584395676574851,0.8195217698565912,0.31151056507183505,0.820784162109064,0.37892787013047163,0.4883486760661039,0.22221259398467264,0.6209784153679856,0.22334716042056907,0.627477189273395,0.4246278216158671,0.6902735766619614,0.19187697434933587,0.8346608124733371,0.9605082644017962,0.7765417749981681,0.34061714830665285,0.8842142913260476,0.4768898905356309,0.7165514134829797,0.3838571083280822
27,1.8276917720949293,0.8645141592244867,0.7093368792064897,0.2716308788283377,0.4222213404996891,0.19125676223448107,0.7795203823063985,0.1261556124878176,0.9075605237735267,0.5667575205356293,0.928815544269865,0.5843505558048644,0.9315477020461101,0.5960992003013971,0.8162279547823816,0.5164514570409774,0.6147192102026038,0.04973955066095935,0.5785966843601884,0.3569217744831732,0.9766627696510144,0.8602386213953783,0.6725222721498285,0.43935548126837026,0.6490372929418488,0.5082342079039226,0.7833665136073991,0.38902292105384295,0.7054503532872016,0.2885907014431794,0.8082292350323264,0.11323170794735188,0.8225272708272486,0.2683414522388554,0.6390385671648948,0.07683400120981883,0.5595532491938412,0.03426899146706584,0.6469852629667736,0.20457282710485222,0.81696110310692,0.2558334307161854,0.6792061498840929,0.449270825831363,0.9144678806557665,0.28646344916462174,0.8781844654942115,0.9732967276706473,0.9081239269855639,0.6282899355474072,0.5150681440640211,0.09228186026652112,0.9231321841715018,0.6573202333209938,0.9346098240162277,0.573477308555302,0.7600619513573308,0.3836402961660487,0.7126831501831502,0.38141228149351625,0.1286598103409146,0.89650023031102,0.5307200712729768,0.8098746466492002,0.3256262168730334,0.7629485145754792,0.36254399877270005,0.5487182515880917,0.29393359665210395,0.5440246486964959,0.22166777660978604,0.5822454656726382,0.37745844747309526,0.7200323814700837,0.2724116437886558,0.8432974720274893,0.962413830359914,0.7870277116482417,0.3578276148045201,0.8536123205934528,0.49756154246910456,0.7026994477023372,0.39371132267425496
28,1.7832738399487418,0.8361193801999848,0.7208204464957102,0.15083658816590714,0.48064901814406846,0.203761567431462,0.7060375455449067,0.10494595663250329,0.9087635884224218,0.5651149251623875,0.8813925802969382,0.5169378155031367,0.8432541866710503,0.377719228451729,0.7181330850233806,0.3541443093132765,0.5617968396720141,0.03436072260522065,0.5220913713196456,0.28407236997244273,0.9767805641316911,0.8337163841428137,0.694603501652874,0.3866099083176778,0.5521616853882604,0.39182497012709716,0.7216636327280048,0.25893384853000345,0.6959865020247633,0.2416423417577553,0.767924321054148,0.06605739569638264,0.7477294407035351,0.20942760231794502,0.5499573257681175,0.02112786807036695,0.51471491992986,0.03309066854107018,0.6425910095019065,0.21423927158431275,0.7478961335991228,0.16302919897622792,0.6779260447187887,0.35619629882627224,0.847217213784643,0.22446173668499025,0.8588227175358534,0.9687025044968999,0.8958002681676369,0.6075575313524229,0.45379079296948777,0.043809601411740964,0.8954797364968962,0.6638994568168123,0.8860150126986162,0.4904139024803527,0.7211110920164572,0.3246901471618226,0.6632326007326007,0.43079620102095056,0.14329951055076168,0.8837003361931374,0.48051259680739483,0.7401934380170987,0.20381072730566657,0.6553348842457389,0.219334222544798,0.4959580170061192,0.23296496519347365,0.5772362351158813,0.1989847669558789,0.49504256147769,0.2873645520465836,0.6619345298111179,0.18469103565299058,0.8275141743295906,0.9596635745448745,0.7447475379042139,0.30760193576650074,0.815615967647898,0.42643724107796593,0.6661885347972215,0.3313331934951717
29,1.787731092337042,0.8594763758491718,0.6849707920489541,0.24736944363413127,0.442659357097804,0.18675756619343004,0.805299824188243,0.15265364860764574,0.8480113882573673,0.49281266891934994,0.9145363845915786,0.6167023921993293,0.9171445457690025,0.6163219225812995,0.824102329131462,0.5182131231544735,0.6392155467645693,0.07179893616727386,0.6168077588855235,0.4212439387397675,0.9403630633637065,0.7546293461790469,0.7145805530536102,0.4424318608699245,0.6655997986771547,0.5295606623969286,0.7500767685266861,0.2793344628584816,0.7700837295020763,0.3485901140391645,0.7766632060383287,0.083376828085234,0.7637546523187237,0.21465084317802788,0.5182955934265947,0.05361798964140232,0.5609214057417017,0.03655677988006979,0.7114423833444289,0.24712830626484875,0.7740028119911088,0.21449956860806912,0.6882430367490204,0.39822143767630214,0.9002016621646897,0.31178275037196773,0.8693437376761539,0.9710491747283599,0.8776400003406135,0.5884237452630569,0.46917187434375285,0.07124123464590983,0.89672597796904,0.6524634615821818,0.8601235303187074,0.4659248725422271,0.7481474708252075,0.36990211403732975,0.7016941391941391,0.3979440583285696,0.13181277982644624,0.8379280889758082,0.45409409403843287,0.7993969336045229,0.3501695677380525,0.7814001685870546,0.37240635930373883,0.5780650822310138,0.3314667186569812,0.5836846013737222,0.2159748019701531,0.6086093802158674,0.39111882131203035,0.6925341422855823,0.2326177372827236,0.8383122756998638,0.9603953980707404,0.7537021694469598,0.3283804861330656,0.7972680171519068,0.400173573646737,0.6971677198091701,0.37896457617991836
